Frequency [Hz], |S00| [-], |S10| [-], Arg(S00) [-], Arg(S10) [-], Delay 0>0 [s], Delay 0>1 [s], |Z0| [Ohm] , Arg(Z0) [-]
2.000000e+08, 9.158312e-02, 7.545118e-01, 2.844991e+00, -5.389037e-01, 3.776047e-10, 4.168690e-10, 3.356180e+01, 5.393488e-02
2.038000e+08, 9.088705e-02, 7.548217e-01, 2.835975e+00, -5.488569e-01, 3.714903e-10, 4.177518e-10, 3.362346e+01, 5.509236e-02
2.076000e+08, 9.018279e-02, 7.551316e-01, 2.827105e+00, -5.588312e-01, 3.654700e-10, 4.186079e-10, 3.368568e+01, 5.619059e-02
2.114000e+08, 8.947038e-02, 7.554411e-01, 2.818379e+00, -5.688259e-01, 3.595287e-10, 4.194385e-10, 3.374845e+01, 5.723039e-02
2.152000e+08, 8.874988e-02, 7.557501e-01, 2.809795e+00, -5.788405e-01, 3.536524e-10, 4.202448e-10, 3.381172e+01, 5.821252e-02
2.190000e+08, 8.802134e-02, 7.560583e-01, 2.801351e+00, -5.888743e-01, 3.478277e-10, 4.210277e-10, 3.387547e+01, 5.913772e-02
2.228000e+08, 8.728484e-02, 7.563654e-01, 2.793046e+00, -5.989268e-01, 3.420420e-10, 4.217882e-10, 3.393968e+01, 6.000669e-02
2.266000e+08, 8.654044e-02, 7.566714e-01, 2.784880e+00, -6.089975e-01, 3.362830e-10, 4.225271e-10, 3.400430e+01, 6.082010e-02
2.304000e+08, 8.578825e-02, 7.569759e-01, 2.776851e+00, -6.190858e-01, 3.305390e-10, 4.232451e-10, 3.406932e+01, 6.157858e-02
2.342000e+08, 8.502835e-02, 7.572788e-01, 2.768959e+00, -6.291912e-01, 3.247988e-10, 4.239429e-10, 3.413471e+01, 6.228275e-02
2.380000e+08, 8.426084e-02, 7.575799e-01, 2.761204e+00, -6.393133e-01, 3.190513e-10, 4.246211e-10, 3.420043e+01, 6.293320e-02
2.418000e+08, 8.348583e-02, 7.578789e-01, 2.753586e+00, -6.494516e-01, 3.132858e-10, 4.252803e-10, 3.426645e+01, 6.353051e-02
2.456000e+08, 8.270343e-02, 7.581757e-01, 2.746106e+00, -6.596056e-01, 3.074918e-10, 4.259210e-10, 3.433275e+01, 6.407524e-02
2.494000e+08, 8.191375e-02, 7.584702e-01, 2.738764e+00, -6.697750e-01, 3.016588e-10, 4.265436e-10, 3.439930e+01, 6.456794e-02
2.532000e+08, 8.111693e-02, 7.587620e-01, 2.731562e+00, -6.799592e-01, 2.957765e-10, 4.271487e-10, 3.446606e+01, 6.500914e-02
2.570000e+08, 8.031308e-02, 7.590511e-01, 2.724500e+00, -6.901578e-01, 2.898345e-10, 4.277365e-10, 3.453302e+01, 6.539937e-02
2.608000e+08, 7.950234e-02, 7.593372e-01, 2.717580e+00, -7.003705e-01, 2.838225e-10, 4.283075e-10, 3.460013e+01, 6.573916e-02
2.646000e+08, 7.868484e-02, 7.596203e-01, 2.710803e+00, -7.105968e-01, 2.777299e-10, 4.288620e-10, 3.466737e+01, 6.602902e-02
2.684000e+08, 7.786074e-02, 7.599002e-01, 2.704172e+00, -7.208364e-01, 2.715461e-10, 4.294003e-10, 3.473472e+01, 6.626945e-02
2.722000e+08, 7.703018e-02, 7.601767e-01, 2.697689e+00, -7.310888e-01, 2.652604e-10, 4.299228e-10, 3.480214e+01, 6.646097e-02
2.760000e+08, 7.619330e-02, 7.604497e-01, 2.691355e+00, -7.413537e-01, 2.588617e-10, 4.304297e-10, 3.486960e+01, 6.660408e-02
2.798000e+08, 7.535026e-02, 7.607191e-01, 2.685175e+00, -7.516306e-01, 2.523386e-10, 4.309213e-10, 3.493708e+01, 6.669927e-02
2.836000e+08, 7.450123e-02, 7.609847e-01, 2.679150e+00, -7.619194e-01, 2.456795e-10, 4.313979e-10, 3.500454e+01, 6.674706e-02
2.874000e+08, 7.364637e-02, 7.612464e-01, 2.673284e+00, -7.722195e-01, 2.388723e-10, 4.318597e-10, 3.507196e+01, 6.674794e-02
2.912000e+08, 7.278583e-02, 7.615041e-01, 2.667580e+00, -7.825306e-01, 2.319044e-10, 4.323069e-10, 3.513931e+01, 6.670241e-02
2.950000e+08, 7.191981e-02, 7.617576e-01, 2.662044e+00, -7.928524e-01, 2.247628e-10, 4.327397e-10, 3.520656e+01, 6.661097e-02
2.988000e+08, 7.104848e-02, 7.620070e-01, 2.656677e+00, -8.031845e-01, 2.174338e-10, 4.331585e-10, 3.527368e+01, 6.647414e-02
3.026000e+08, 7.017201e-02, 7.622520e-01, 2.651486e+00, -8.135267e-01, 2.099032e-10, 4.335633e-10, 3.534065e+01, 6.629241e-02
3.064000e+08, 6.929059e-02, 7.624926e-01, 2.646474e+00, -8.238785e-01, 2.021561e-10, 4.339544e-10, 3.540743e+01, 6.606630e-02
3.102000e+08, 6.840443e-02, 7.627287e-01, 2.641647e+00, -8.342396e-01, 1.941766e-10, 4.343321e-10, 3.547400e+01, 6.579631e-02
3.140000e+08, 6.751371e-02, 7.629602e-01, 2.637011e+00, -8.446098e-01, 1.859482e-10, 4.346964e-10, 3.554034e+01, 6.548297e-02
3.178000e+08, 6.661864e-02, 7.631871e-01, 2.632571e+00, -8.549886e-01, 1.774535e-10, 4.350477e-10, 3.560641e+01, 6.512678e-02
3.216000e+08, 6.571942e-02, 7.634092e-01, 2.628334e+00, -8.653759e-01, 1.686738e-10, 4.353861e-10, 3.567218e+01, 6.472828e-02
3.254000e+08, 6.481628e-02, 7.636265e-01, 2.624307e+00, -8.757712e-01, 1.595897e-10, 4.357117e-10, 3.573764e+01, 6.428798e-02
3.292000e+08, 6.390943e-02, 7.638390e-01, 2.620497e+00, -8.861743e-01, 1.501802e-10, 4.360248e-10, 3.580274e+01, 6.380641e-02
3.330000e+08, 6.299910e-02, 7.640465e-01, 2.616911e+00, -8.965849e-01, 1.404233e-10, 4.363256e-10, 3.586748e+01, 6.328411e-02
3.368000e+08, 6.208553e-02, 7.642491e-01, 2.613558e+00, -9.070026e-01, 1.302956e-10, 4.366143e-10, 3.593181e+01, 6.272161e-02
3.406000e+08, 6.116896e-02, 7.644467e-01, 2.610447e+00, -9.174273e-01, 1.197721e-10, 4.368909e-10, 3.599572e+01, 6.211945e-02
3.444000e+08, 6.024964e-02, 7.646392e-01, 2.607588e+00, -9.278585e-01, 1.088260e-10, 4.371559e-10, 3.605918e+01, 6.147818e-02
3.482000e+08, 5.932783e-02, 7.648267e-01, 2.604989e+00, -9.382961e-01, 9.742909e-11, 4.374092e-10, 3.612216e+01, 6.079835e-02
3.520000e+08, 5.840380e-02, 7.650091e-01, 2.602663e+00, -9.487397e-01, 8.555097e-11, 4.376511e-10, 3.618464e+01, 6.008051e-02
3.558000e+08, 5.747784e-02, 7.651863e-01, 2.600620e+00, -9.591891e-01, 7.315934e-11, 4.378818e-10, 3.624659e+01, 5.932521e-02
3.596000e+08, 5.655023e-02, 7.653583e-01, 2.598874e+00, -9.696440e-01, 6.021962e-11, 4.381015e-10, 3.630799e+01, 5.853302e-02
3.634000e+08, 5.562128e-02, 7.655252e-01, 2.597436e+00, -9.801042e-01, 4.669490e-11, 4.383104e-10, 3.636881e+01, 5.770451e-02
3.672000e+08, 5.469130e-02, 7.656870e-01, 2.596321e+00, -9.905693e-01, 3.254572e-11, 4.385086e-10, 3.642903e+01, 5.684024e-02
3.710000e+08, 5.376063e-02, 7.658435e-01, 2.595544e+00, -1.001039e+00, 1.772990e-11, 4.386963e-10, 3.648863e+01, 5.594078e-02
3.748000e+08, 5.282960e-02, 7.659948e-01, 2.595121e+00, -1.011514e+00, 2.202357e-12, 4.388738e-10, 3.654758e+01, 5.500672e-02
3.786000e+08, 5.189859e-02, 7.661410e-01, 2.595068e+00, -1.021992e+00, -1.408508e-11, 4.390412e-10, 3.660586e+01, 5.403863e-02
3.824000e+08, 5.096797e-02, 7.662819e-01, 2.595404e+00, -1.032475e+00, -3.118386e-11, 4.391987e-10, 3.666345e+01, 5.303710e-02
3.862000e+08, 5.003814e-02, 7.664177e-01, 2.596149e+00, -1.042961e+00, -4.914890e-11, 4.393464e-10, 3.672031e+01, 5.200272e-02
3.900000e+08, 4.910952e-02, 7.665483e-01, 2.597322e+00, -1.053451e+00, -6.803876e-11, 4.394847e-10, 3.677644e+01, 5.093608e-02
3.938000e+08, 4.818256e-02, 7.666738e-01, 2.598947e+00, -1.063944e+00, -8.791579e-11, 4.396136e-10, 3.683181e+01, 4.983778e-02
3.976000e+08, 4.725772e-02, 7.667942e-01, 2.601046e+00, -1.074440e+00, -1.088463e-10, 4.397334e-10, 3.688640e+01, 4.870841e-02
4.014000e+08, 4.633551e-02, 7.669094e-01, 2.603645e+00, -1.084940e+00, -1.309008e-10, 4.398442e-10, 3.694019e+01, 4.754859e-02
4.052000e+08, 4.541644e-02, 7.670196e-01, 2.606770e+00, -1.095441e+00, -1.541537e-10, 4.399463e-10, 3.699315e+01, 4.635891e-02
4.090000e+08, 4.450107e-02, 7.671247e-01, 2.610451e+00, -1.105946e+00, -1.786838e-10, 4.400398e-10, 3.704527e+01, 4.513998e-02
4.128000e+08, 4.359001e-02, 7.672248e-01, 2.614717e+00, -1.116452e+00, -2.045737e-10, 4.401249e-10, 3.709652e+01, 4.389242e-02
4.166000e+08, 4.268387e-02, 7.673199e-01, 2.619601e+00, -1.126960e+00, -2.319102e-10, 4.402018e-10, 3.714689e+01, 4.261684e-02
4.204000e+08, 4.178334e-02, 7.674101e-01, 2.625139e+00, -1.137471e+00, -2.607835e-10, 4.402707e-10, 3.719636e+01, 4.131386e-02
4.242000e+08, 4.088914e-02, 7.674954e-01, 2.631365e+00, -1.147983e+00, -2.912868e-10, 4.403318e-10, 3.724491e+01, 3.998410e-02
4.280000e+08, 4.000203e-02, 7.675758e-01, 2.638320e+00, -1.158496e+00, -3.235158e-10, 4.403852e-10, 3.729251e+01, 3.862819e-02
4.318000e+08, 3.912285e-02, 7.676515e-01, 2.646044e+00, -1.169011e+00, -3.575672e-10, 4.404313e-10, 3.733916e+01, 3.724674e-02
4.356000e+08, 3.825246e-02, 7.677223e-01, 2.654581e+00, -1.179527e+00, -3.935380e-10, 4.404700e-10, 3.738484e+01, 3.584040e-02
4.394000e+08, 3.739183e-02, 7.677885e-01, 2.663978e+00, -1.190043e+00, -4.315229e-10, 4.405017e-10, 3.742952e+01, 3.440978e-02
4.432000e+08, 3.654196e-02, 7.678500e-01, 2.674281e+00, -1.200561e+00, -4.716125e-10, 4.405265e-10, 3.747320e+01, 3.295552e-02
4.470000e+08, 3.570395e-02, 7.679069e-01, 2.685541e+00, -1.211079e+00, -5.138903e-10, 4.405446e-10, 3.751585e+01, 3.147826e-02
4.508000e+08, 3.487896e-02, 7.679592e-01, 2.697811e+00, -1.221597e+00, -5.584286e-10, 4.405562e-10, 3.755746e+01, 2.997863e-02
4.546000e+08, 3.406825e-02, 7.680071e-01, 2.711144e+00, -1.232116e+00, -6.052842e-10, 4.405614e-10, 3.759801e+01, 2.845727e-02
4.584000e+08, 3.327317e-02, 7.680505e-01, 2.725596e+00, -1.242635e+00, -6.544927e-10, 4.405605e-10, 3.763750e+01, 2.691483e-02
4.622000e+08, 3.249516e-02, 7.680896e-01, 2.741222e+00, -1.253154e+00, -7.060620e-10, 4.405536e-10, 3.767590e+01, 2.535193e-02
4.660000e+08, 3.173575e-02, 7.681244e-01, 2.758080e+00, -1.263673e+00, -7.599643e-10, 4.405409e-10, 3.771320e+01, 2.376923e-02
4.698000e+08, 3.099660e-02, 7.681549e-01, 2.776225e+00, -1.274191e+00, -8.161274e-10, 4.405225e-10, 3.774939e+01, 2.216737e-02
4.736000e+08, 3.027945e-02, 7.681813e-01, 2.795711e+00, -1.284709e+00, -8.744243e-10, 4.404987e-10, 3.778445e+01, 2.054699e-02
4.774000e+08, 2.958617e-02, 7.682036e-01, 2.816589e+00, -1.295226e+00, -9.346629e-10, 4.404697e-10, 3.781838e+01, 1.890874e-02
4.812000e+08, 2.891871e-02, 7.682218e-01, 2.838905e+00, -1.305743e+00, -9.965742e-10, 4.404355e-10, 3.785115e+01, 1.725328e-02
4.850000e+08, 2.827916e-02, 7.682361e-01, 2.862700e+00, -1.316259e+00, -1.059801e-09, 4.403964e-10, 3.788277e+01, 1.558123e-02
4.888000e+08, 2.766966e-02, 7.682465e-01, 2.888003e+00, -1.326774e+00, -1.123887e-09, 4.403525e-10, 3.791322e+01, 1.389327e-02
4.926000e+08, 2.709246e-02, 7.682531e-01, 2.914838e+00, -1.337288e+00, -1.188272e-09, 4.403040e-10, 3.794248e+01, 1.219003e-02
4.964000e+08, 2.654986e-02, 7.682559e-01, 2.943209e+00, -1.347800e+00, -1.252281e-09, 4.402511e-10, 3.797055e+01, 1.047216e-02
5.002000e+08, 2.604422e-02, 7.682551e-01, 2.973108e+00, -1.358312e+00, -1.315131e-09, 4.401939e-10, 3.799742e+01, 8.740325e-03
5.040000e+08, 2.557790e-02, 7.682507e-01, 3.004509e+00, -1.368822e+00, -1.375933e-09, 4.401325e-10, 3.802308e+01, 6.995162e-03
5.078000e+08, 2.515323e-02, 7.682428e-01, 3.037361e+00, -1.379331e+00, -1.433711e-09, 4.400672e-10, 3.804752e+01, 5.237326e-03
5.116000e+08, 2.477251e-02, 7.682314e-01, 3.071592e+00, -1.389838e+00, -1.487427e-09, 4.399981e-10, 3.807073e+01, 3.467468e-03
5.154000e+08, 2.443790e-02, 7.682166e-01, 3.107106e+00, -1.400343e+00, -1.536013e-09, 4.399254e-10, 3.809271e+01, 1.686238e-03
5.192000e+08, 2.415143e-02, 7.681986e-01, -3.139405e+00, -1.410847e+00, -1.578416e-09, 4.398491e-10, 3.811345e+01, -1.057138e-04
5.230000e+08, 2.391492e-02, 7.681773e-01, -3.101719e+00, -1.421349e+00, -1.613648e-09, 4.397695e-10, 3.813294e+01, -1.907737e-03
5.268000e+08, 2.372993e-02, 7.681530e-01, -3.063191e+00, -1.431849e+00, -1.640838e-09, 4.396866e-10, 3.815118e+01, -3.719182e-03
5.306000e+08, 2.359771e-02, 7.681255e-01, -3.024015e+00, -1.442347e+00, -1.659286e-09, 4.396007e-10, 3.816816e+01, -5.539400e-03
5.344000e+08, 2.351918e-02, 7.680951e-01, -2.984397e+00, -1.452843e+00, -1.668503e-09, 4.395119e-10, 3.818388e+01, -7.367744e-03
5.382000e+08, 2.349491e-02, 7.680617e-01, -2.944560e+00, -1.463337e+00, -1.668249e-09, 4.394203e-10, 3.819832e+01, -9.203564e-03
5.420000e+08, 2.352503e-02, 7.680256e-01, -2.904729e+00, -1.473828e+00, -1.658544e-09, 4.393260e-10, 3.821150e+01, -1.104622e-02
5.458000e+08, 2.360933e-02, 7.679867e-01, -2.865129e+00, -1.484318e+00, -1.639670e-09, 4.392292e-10, 3.822340e+01, -1.289505e-02
5.496000e+08, 2.374717e-02, 7.679451e-01, -2.825980e+00, -1.494805e+00, -1.612150e-09, 4.391300e-10, 3.823402e+01, -1.474943e-02
5.534000e+08, 2.393756e-02, 7.679009e-01, -2.787488e+00, -1.505289e+00, -1.576715e-09, 4.390286e-10, 3.824337e+01, -1.660871e-02
5.572000e+08, 2.417919e-02, 7.678542e-01, -2.749842e+00, -1.515772e+00, -1.534259e-09, 4.389250e-10, 3.825143e+01, -1.847225e-02
5.610000e+08, 2.447043e-02, 7.678050e-01, -2.713210e+00, -1.526252e+00, -1.485782e-09, 4.388195e-10, 3.825821e+01, -2.033941e-02
5.648000e+08, 2.480943e-02, 7.677535e-01, -2.677736e+00, -1.536729e+00, -1.432343e-09, 4.387120e-10, 3.826371e+01, -2.220954e-02
5.686000e+08, 2.519411e-02, 7.676997e-01, -2.643537e+00, -1.547204e+00, -1.375009e-09, 4.386028e-10, 3.826792e+01, -2.408202e-02
5.724000e+08, 2.562229e-02, 7.676437e-01, -2.610707e+00, -1.557676e+00, -1.314811e-09, 4.384919e-10, 3.827085e+01, -2.595621e-02
5.762000e+08, 2.609165e-02, 7.675855e-01, -2.579314e+00, -1.568145e+00, -1.252714e-09, 4.383795e-10, 3.827250e+01, -2.783147e-02
5.800000e+08, 2.659985e-02, 7.675253e-01, -2.549404e+00, -1.578612e+00, -1.189588e-09, 4.382657e-10, 3.827286e+01, -2.970718e-02
5.838000e+08, 2.714451e-02, 7.674630e-01, -2.521002e+00, -1.589076e+00, -1.126203e-09, 4.381505e-10, 3.827195e+01, -3.158271e-02
5.876000e+08, 2.772330e-02, 7.673989e-01, -2.494112e+00, -1.599537e+00, -1.063215e-09, 4.380342e-10, 3.826976e+01, -3.345743e-02
5.914000e+08, 2.833390e-02, 7.673329e-01, -2.468727e+00, -1.609996e+00, -1.001168e-09, 4.379167e-10, 3.826630e+01, -3.533072e-02
5.952000e+08, 2.897410e-02, 7.672651e-01, -2.444823e+00, -1.620452e+00, -9.405024e-10, 4.377982e-10, 3.826157e+01, -3.720196e-02
5.990000e+08, 2.964175e-02, 7.671957e-01, -2.422367e+00, -1.630905e+00, -8.815615e-10, 4.376789e-10, 3.825557e+01, -3.907054e-02
6.028000e+08, 3.033479e-02, 7.671246e-01, -2.401319e+00, -1.641355e+00, -8.246017e-10, 4.375587e-10, 3.824831e+01, -4.093583e-02
6.066000e+08, 3.105129e-02, 7.670519e-01, -2.381631e+00, -1.651802e+00, -7.698048e-10, 4.374378e-10, 3.823979e+01, -4.279722e-02
6.104000e+08, 3.178941e-02, 7.669778e-01, -2.363251e+00, -1.662246e+00, -7.172885e-10, 4.373163e-10, 3.823002e+01, -4.465412e-02
6.142000e+08, 3.254742e-02, 7.669022e-01, -2.346125e+00, -1.672688e+00, -6.671179e-10, 4.371942e-10, 3.821901e+01, -4.650590e-02
6.180000e+08, 3.332370e-02, 7.668253e-01, -2.330197e+00, -1.683126e+00, -6.193151e-10, 4.370717e-10, 3.820676e+01, -4.835198e-02
6.218000e+08, 3.411673e-02, 7.667471e-01, -2.315410e+00, -1.693562e+00, -5.738675e-10, 4.369489e-10, 3.819327e+01, -5.019174e-02
6.256000e+08, 3.492509e-02, 7.666677e-01, -2.301708e+00, -1.703994e+00, -5.307363e-10, 4.368258e-10, 3.817856e+01, -5.202460e-02
6.294000e+08, 3.574747e-02, 7.665871e-01, -2.289036e+00, -1.714424e+00, -4.898622e-10, 4.367024e-10, 3.816263e+01, -5.384996e-02
6.332000e+08, 3.658263e-02, 7.665054e-01, -2.277340e+00, -1.724851e+00, -4.511711e-10, 4.365790e-10, 3.814550e+01, -5.566724e-02
6.370000e+08, 3.742944e-02, 7.664227e-01, -2.266568e+00, -1.735275e+00, -4.145788e-10, 4.364555e-10, 3.812716e+01, -5.747586e-02
6.408000e+08, 3.828682e-02, 7.663391e-01, -2.256670e+00, -1.745695e+00, -3.799940e-10, 4.363321e-10, 3.810764e+01, -5.927523e-02
6.446000e+08, 3.915378e-02, 7.662545e-01, -2.247597e+00, -1.756113e+00, -3.473220e-10, 4.362087e-10, 3.808693e+01, -6.106478e-02
6.484000e+08, 4.002941e-02, 7.661691e-01, -2.239304e+00, -1.766528e+00, -3.164661e-10, 4.360856e-10, 3.806505e+01, -6.284393e-02
6.522000e+08, 4.091285e-02, 7.660829e-01, -2.231748e+00, -1.776940e+00, -2.873299e-10, 4.359626e-10, 3.804201e+01, -6.461213e-02
6.560000e+08, 4.180329e-02, 7.659960e-01, -2.224888e+00, -1.787349e+00, -2.598186e-10, 4.358400e-10, 3.801782e+01, -6.636881e-02
6.598000e+08, 4.270000e-02, 7.659085e-01, -2.218684e+00, -1.797756e+00, -2.338397e-10, 4.357178e-10, 3.799249e+01, -6.811341e-02
6.636000e+08, 4.360227e-02, 7.658204e-01, -2.213101e+00, -1.808159e+00, -2.093040e-10, 4.355960e-10, 3.796604e+01, -6.984538e-02
6.674000e+08, 4.450946e-02, 7.657317e-01, -2.208104e+00, -1.818559e+00, -1.861259e-10, 4.354746e-10, 3.793847e+01, -7.156417e-02
6.712000e+08, 4.542096e-02, 7.656425e-01, -2.203660e+00, -1.828957e+00, -1.642236e-10, 4.353539e-10, 3.790980e+01, -7.326925e-02
6.750000e+08, 4.633619e-02, 7.655529e-01, -2.199739e+00, -1.839351e+00, -1.435195e-10, 4.352337e-10, 3.788004e+01, -7.496007e-02
6.788000e+08, 4.725464e-02, 7.654629e-01, -2.196312e+00, -1.849743e+00, -1.239403e-10, 4.351142e-10, 3.784920e+01, -7.663609e-02
6.826000e+08, 4.817579e-02, 7.653725e-01, -2.193353e+00, -1.860132e+00, -1.054166e-10, 4.349954e-10, 3.781730e+01, -7.829680e-02
6.864000e+08, 4.909919e-02, 7.652819e-01, -2.190836e+00, -1.870518e+00, -8.788329e-11, 4.348774e-10, 3.778436e+01, -7.994168e-02
6.902000e+08, 5.002437e-02, 7.651911e-01, -2.188738e+00, -1.880901e+00, -7.127913e-11, 4.347601e-10, 3.775038e+01, -8.157020e-02
6.940000e+08, 5.095093e-02, 7.651001e-01, -2.187036e+00, -1.891281e+00, -5.554668e-11, 4.346438e-10, 3.771538e+01, -8.318185e-02
6.978000e+08, 5.187847e-02, 7.650090e-01, -2.185710e+00, -1.901659e+00, -4.063216e-11, 4.345283e-10, 3.767938e+01, -8.477614e-02
7.016000e+08, 5.280662e-02, 7.649178e-01, -2.184739e+00, -1.912034e+00, -2.648523e-11, 4.344138e-10, 3.764239e+01, -8.635257e-02
7.054000e+08, 5.373503e-02, 7.648265e-01, -2.184107e+00, -1.922406e+00, -1.305885e-11, 4.343002e-10, 3.760443e+01, -8.791063e-02
7.092000e+08, 5.466335e-02, 7.647353e-01, -2.183795e+00, -1.932775e+00, -3.090481e-13, 4.341877e-10, 3.756551e+01, -8.944985e-02
7.130000e+08, 5.559128e-02, 7.646442e-01, -2.183788e+00, -1.943142e+00, 1.180523e-11, 4.340763e-10, 3.752565e+01, -9.096975e-02
7.168000e+08, 5.651850e-02, 7.645531e-01, -2.184070e+00, -1.953506e+00, 2.332231e-11, 4.339659e-10, 3.748487e+01, -9.246984e-02
7.206000e+08, 5.744473e-02, 7.644622e-01, -2.184627e+00, -1.963867e+00, 3.427800e-11, 4.338568e-10, 3.744318e+01, -9.394967e-02
7.244000e+08, 5.836969e-02, 7.643715e-01, -2.185445e+00, -1.974226e+00, 4.470570e-11, 4.337487e-10, 3.740060e+01, -9.540878e-02
7.282000e+08, 5.929312e-02, 7.642810e-01, -2.186512e+00, -1.984582e+00, 5.463659e-11, 4.336419e-10, 3.735715e+01, -9.684670e-02
7.320000e+08, 6.021477e-02, 7.641908e-01, -2.187817e+00, -1.994936e+00, 6.409979e-11, 4.335363e-10, 3.731285e+01, -9.826300e-02
7.358000e+08, 6.113439e-02, 7.641009e-01, -2.189347e+00, -2.005287e+00, 7.312249e-11, 4.334320e-10, 3.726772e+01, -9.965722e-02
7.396000e+08, 6.205175e-02, 7.640114e-01, -2.191093e+00, -2.015636e+00, 8.173007e-11, 4.333290e-10, 3.722176e+01, -1.010289e-01
7.434000e+08, 6.296663e-02, 7.639222e-01, -2.193045e+00, -2.025982e+00, 8.994626e-11, 4.332273e-10, 3.717501e+01, -1.023777e-01
7.472000e+08, 6.387881e-02, 7.638335e-01, -2.195192e+00, -2.036326e+00, 9.779323e-11, 4.331269e-10, 3.712748e+01, -1.037032e-01
7.510000e+08, 6.478808e-02, 7.637452e-01, -2.197527e+00, -2.046667e+00, 1.052917e-10, 4.330280e-10, 3.707918e+01, -1.050049e-01
7.548000e+08, 6.569425e-02, 7.636574e-01, -2.200041e+00, -2.057006e+00, 1.124610e-10, 4.329304e-10, 3.703015e+01, -1.062824e-01
7.586000e+08, 6.659712e-02, 7.635702e-01, -2.202726e+00, -2.067343e+00, 1.193194e-10, 4.328342e-10, 3.698039e+01, -1.075353e-01
7.624000e+08, 6.749650e-02, 7.634835e-01, -2.205575e+00, -2.077677e+00, 1.258837e-10, 4.327395e-10, 3.692993e+01, -1.087633e-01
7.662000e+08, 6.839221e-02, 7.633974e-01, -2.208581e+00, -2.088009e+00, 1.321699e-10, 4.326462e-10, 3.687879e+01, -1.099660e-01
7.700000e+08, 6.928408e-02, 7.633119e-01, -2.211736e+00, -2.098339e+00, 1.381929e-10, 4.325544e-10, 3.682699e+01, -1.111429e-01
7.738000e+08, 7.017193e-02, 7.632271e-01, -2.215036e+00, -2.108667e+00, 1.439666e-10, 4.324641e-10, 3.677454e+01, -1.122938e-01
7.776000e+08, 7.105560e-02, 7.631430e-01, -2.218473e+00, -2.118993e+00, 1.495040e-10, 4.323753e-10, 3.672147e+01, -1.134182e-01
7.814000e+08, 7.193493e-02, 7.630596e-01, -2.222043e+00, -2.129316e+00, 1.548176e-10, 4.322880e-10, 3.666780e+01, -1.145158e-01
7.852000e+08, 7.280976e-02, 7.629769e-01, -2.225739e+00, -2.139637e+00, 1.599187e-10, 4.322023e-10, 3.661355e+01, -1.155863e-01
