Frequency [Hz], |S00| [-], |S10| [-], Arg(S00) [-], Arg(S10) [-], Delay 0>0 [s], Delay 0>1 [s], |Z0| [Ohm] , Arg(Z0) [-]
2.000000e+08, 9.842501e-02, 7.616909e-01, 2.986354e+00, -2.991338e-01, 1.555910e-10, 2.336081e-10, 3.291163e+01, 3.072416e-02
2.038000e+08, 9.830913e-02, 7.617011e-01, 2.982639e+00, -3.047115e-01, 1.540948e-10, 2.337332e-10, 3.292310e+01, 3.141507e-02
2.076000e+08, 9.819169e-02, 7.617114e-01, 2.978960e+00, -3.102921e-01, 1.526403e-10, 2.338535e-10, 3.293472e+01, 3.209626e-02
2.114000e+08, 9.807269e-02, 7.617219e-01, 2.975316e+00, -3.158756e-01, 1.512245e-10, 2.339691e-10, 3.294649e+01, 3.276793e-02
2.152000e+08, 9.795215e-02, 7.617325e-01, 2.971705e+00, -3.214619e-01, 1.498450e-10, 2.340805e-10, 3.295840e+01, 3.343026e-02
2.190000e+08, 9.783010e-02, 7.617432e-01, 2.968127e+00, -3.270508e-01, 1.484996e-10, 2.341878e-10, 3.297045e+01, 3.408343e-02
2.228000e+08, 9.770655e-02, 7.617540e-01, 2.964582e+00, -3.326423e-01, 1.471861e-10, 2.342915e-10, 3.298264e+01, 3.472760e-02
2.266000e+08, 9.758151e-02, 7.617650e-01, 2.961067e+00, -3.382363e-01, 1.459027e-10, 2.343916e-10, 3.299496e+01, 3.536291e-02
2.304000e+08, 9.745502e-02, 7.617760e-01, 2.957584e+00, -3.438327e-01, 1.446477e-10, 2.344884e-10, 3.300742e+01, 3.598951e-02
2.342000e+08, 9.732708e-02, 7.617871e-01, 2.954130e+00, -3.494313e-01, 1.434195e-10, 2.345820e-10, 3.302000e+01, 3.660754e-02
2.380000e+08, 9.719771e-02, 7.617983e-01, 2.950706e+00, -3.550322e-01, 1.422169e-10, 2.346728e-10, 3.303271e+01, 3.721713e-02
2.418000e+08, 9.706694e-02, 7.618096e-01, 2.947310e+00, -3.606353e-01, 1.410384e-10, 2.347607e-10, 3.304555e+01, 3.781840e-02
2.456000e+08, 9.693478e-02, 7.618210e-01, 2.943943e+00, -3.662405e-01, 1.398831e-10, 2.348461e-10, 3.305851e+01, 3.841147e-02
2.494000e+08, 9.680126e-02, 7.618324e-01, 2.940603e+00, -3.718477e-01, 1.387497e-10, 2.349289e-10, 3.307158e+01, 3.899645e-02
2.532000e+08, 9.666638e-02, 7.618439e-01, 2.937290e+00, -3.774569e-01, 1.376374e-10, 2.350094e-10, 3.308477e+01, 3.957345e-02
2.570000e+08, 9.653017e-02, 7.618555e-01, 2.934004e+00, -3.830680e-01, 1.365454e-10, 2.350877e-10, 3.309808e+01, 4.014259e-02
2.608000e+08, 9.639265e-02, 7.618672e-01, 2.930744e+00, -3.886810e-01, 1.354727e-10, 2.351638e-10, 3.311149e+01, 4.070395e-02
2.646000e+08, 9.625384e-02, 7.618790e-01, 2.927509e+00, -3.942958e-01, 1.344188e-10, 2.352378e-10, 3.312502e+01, 4.125764e-02
2.684000e+08, 9.611375e-02, 7.618908e-01, 2.924300e+00, -3.999123e-01, 1.333829e-10, 2.353100e-10, 3.313865e+01, 4.180375e-02
2.722000e+08, 9.597241e-02, 7.619026e-01, 2.921115e+00, -4.055306e-01, 1.323645e-10, 2.353802e-10, 3.315238e+01, 4.234238e-02
2.760000e+08, 9.582982e-02, 7.619145e-01, 2.917955e+00, -4.111506e-01, 1.313630e-10, 2.354487e-10, 3.316622e+01, 4.287362e-02
2.798000e+08, 9.568601e-02, 7.619265e-01, 2.914818e+00, -4.167722e-01, 1.303780e-10, 2.355155e-10, 3.318015e+01, 4.339755e-02
2.836000e+08, 9.554100e-02, 7.619385e-01, 2.911706e+00, -4.223954e-01, 1.294089e-10, 2.355806e-10, 3.319418e+01, 4.391426e-02
2.874000e+08, 9.539480e-02, 7.619506e-01, 2.908616e+00, -4.280201e-01, 1.284553e-10, 2.356441e-10, 3.320831e+01, 4.442383e-02
2.912000e+08, 9.524742e-02, 7.619627e-01, 2.905549e+00, -4.336464e-01, 1.275169e-10, 2.357062e-10, 3.322253e+01, 4.492636e-02
2.950000e+08, 9.509890e-02, 7.619749e-01, 2.902504e+00, -4.392741e-01, 1.265934e-10, 2.357667e-10, 3.323684e+01, 4.542191e-02
2.988000e+08, 9.494923e-02, 7.619871e-01, 2.899482e+00, -4.449033e-01, 1.256843e-10, 2.358259e-10, 3.325123e+01, 4.591057e-02
3.026000e+08, 9.479844e-02, 7.619993e-01, 2.896481e+00, -4.505339e-01, 1.247894e-10, 2.358837e-10, 3.326572e+01, 4.639242e-02
3.064000e+08, 9.464655e-02, 7.620116e-01, 2.893501e+00, -4.561659e-01, 1.239085e-10, 2.359402e-10, 3.328029e+01, 4.686753e-02
3.102000e+08, 9.449357e-02, 7.620239e-01, 2.890543e+00, -4.617992e-01, 1.230413e-10, 2.359954e-10, 3.329494e+01, 4.733598e-02
3.140000e+08, 9.433951e-02, 7.620362e-01, 2.887605e+00, -4.674339e-01, 1.221875e-10, 2.360493e-10, 3.330967e+01, 4.779784e-02
3.178000e+08, 9.418438e-02, 7.620486e-01, 2.884688e+00, -4.730698e-01, 1.213469e-10, 2.361021e-10, 3.332448e+01, 4.825319e-02
3.216000e+08, 9.402821e-02, 7.620610e-01, 2.881790e+00, -4.787070e-01, 1.205194e-10, 2.361537e-10, 3.333937e+01, 4.870210e-02
3.254000e+08, 9.387101e-02, 7.620734e-01, 2.878913e+00, -4.843454e-01, 1.197047e-10, 2.362042e-10, 3.335434e+01, 4.914465e-02
3.292000e+08, 9.371279e-02, 7.620858e-01, 2.876055e+00, -4.899851e-01, 1.189027e-10, 2.362535e-10, 3.336938e+01, 4.958089e-02
3.330000e+08, 9.355355e-02, 7.620983e-01, 2.873216e+00, -4.956259e-01, 1.181132e-10, 2.363018e-10, 3.338449e+01, 5.001091e-02
3.368000e+08, 9.339333e-02, 7.621108e-01, 2.870396e+00, -5.012679e-01, 1.173361e-10, 2.363491e-10, 3.339967e+01, 5.043478e-02
3.406000e+08, 9.323212e-02, 7.621233e-01, 2.867594e+00, -5.069110e-01, 1.165711e-10, 2.363953e-10, 3.341492e+01, 5.085255e-02
3.444000e+08, 9.306994e-02, 7.621358e-01, 2.864811e+00, -5.125552e-01, 1.158182e-10, 2.364406e-10, 3.343024e+01, 5.126430e-02
3.482000e+08, 9.290680e-02, 7.621484e-01, 2.862046e+00, -5.182004e-01, 1.150773e-10, 2.364849e-10, 3.344563e+01, 5.167010e-02
3.520000e+08, 9.274272e-02, 7.621610e-01, 2.859298e+00, -5.238468e-01, 1.143481e-10, 2.365282e-10, 3.346108e+01, 5.207001e-02
3.558000e+08, 9.257769e-02, 7.621735e-01, 2.856568e+00, -5.294941e-01, 1.136306e-10, 2.365706e-10, 3.347660e+01, 5.246409e-02
3.596000e+08, 9.241174e-02, 7.621861e-01, 2.853855e+00, -5.351425e-01, 1.129247e-10, 2.366121e-10, 3.349218e+01, 5.285242e-02
3.634000e+08, 9.224488e-02, 7.621987e-01, 2.851159e+00, -5.407919e-01, 1.122302e-10, 2.366528e-10, 3.350782e+01, 5.323505e-02
3.672000e+08, 9.207710e-02, 7.622114e-01, 2.848479e+00, -5.464422e-01, 1.115470e-10, 2.366926e-10, 3.352353e+01, 5.361204e-02
3.710000e+08, 9.190843e-02, 7.622240e-01, 2.845816e+00, -5.520935e-01, 1.108751e-10, 2.367315e-10, 3.353929e+01, 5.398347e-02
3.748000e+08, 9.173886e-02, 7.622366e-01, 2.843168e+00, -5.577458e-01, 1.102142e-10, 2.367696e-10, 3.355511e+01, 5.434938e-02
3.786000e+08, 9.156842e-02, 7.622493e-01, 2.840537e+00, -5.633989e-01, 1.095643e-10, 2.368069e-10, 3.357099e+01, 5.470984e-02
3.824000e+08, 9.139709e-02, 7.622620e-01, 2.837921e+00, -5.690529e-01, 1.089253e-10, 2.368434e-10, 3.358693e+01, 5.506492e-02
3.862000e+08, 9.122491e-02, 7.622746e-01, 2.835320e+00, -5.747078e-01, 1.082970e-10, 2.368791e-10, 3.360292e+01, 5.541466e-02
3.900000e+08, 9.105186e-02, 7.622873e-01, 2.832735e+00, -5.803636e-01, 1.076794e-10, 2.369141e-10, 3.361897e+01, 5.575913e-02
3.938000e+08, 9.087795e-02, 7.623000e-01, 2.830164e+00, -5.860202e-01, 1.070724e-10, 2.369483e-10, 3.363507e+01, 5.609838e-02
3.976000e+08, 9.070320e-02, 7.623127e-01, 2.827607e+00, -5.916776e-01, 1.064758e-10, 2.369818e-10, 3.365122e+01, 5.643247e-02
4.014000e+08, 9.052761e-02, 7.623254e-01, 2.825065e+00, -5.973358e-01, 1.058894e-10, 2.370146e-10, 3.366743e+01, 5.676146e-02
4.052000e+08, 9.035118e-02, 7.623381e-01, 2.822537e+00, -6.029948e-01, 1.053133e-10, 2.370466e-10, 3.368369e+01, 5.708539e-02
4.090000e+08, 9.017392e-02, 7.623508e-01, 2.820022e+00, -6.086545e-01, 1.047473e-10, 2.370780e-10, 3.370000e+01, 5.740433e-02
4.128000e+08, 8.999583e-02, 7.623636e-01, 2.817521e+00, -6.143150e-01, 1.041912e-10, 2.371087e-10, 3.371636e+01, 5.771832e-02
4.166000e+08, 8.981691e-02, 7.623763e-01, 2.815034e+00, -6.199762e-01, 1.036450e-10, 2.371388e-10, 3.373278e+01, 5.802741e-02
4.204000e+08, 8.963718e-02, 7.623890e-01, 2.812559e+00, -6.256382e-01, 1.031085e-10, 2.371681e-10, 3.374924e+01, 5.833167e-02
4.242000e+08, 8.945663e-02, 7.624018e-01, 2.810097e+00, -6.313008e-01, 1.025815e-10, 2.371969e-10, 3.376575e+01, 5.863112e-02
4.280000e+08, 8.927527e-02, 7.624145e-01, 2.807648e+00, -6.369642e-01, 1.020641e-10, 2.372250e-10, 3.378231e+01, 5.892584e-02
4.318000e+08, 8.909309e-02, 7.624273e-01, 2.805211e+00, -6.426282e-01, 1.015560e-10, 2.372525e-10, 3.379892e+01, 5.921585e-02
4.356000e+08, 8.891011e-02, 7.624401e-01, 2.802786e+00, -6.482929e-01, 1.010571e-10, 2.372794e-10, 3.381558e+01, 5.950121e-02
4.394000e+08, 8.872632e-02, 7.624528e-01, 2.800373e+00, -6.539582e-01, 1.005673e-10, 2.373057e-10, 3.383228e+01, 5.978197e-02
4.432000e+08, 8.854172e-02, 7.624656e-01, 2.797972e+00, -6.596241e-01, 1.000864e-10, 2.373314e-10, 3.384904e+01, 6.005816e-02
4.470000e+08, 8.835632e-02, 7.624784e-01, 2.795583e+00, -6.652906e-01, 9.961429e-11, 2.373566e-10, 3.386584e+01, 6.032984e-02
4.508000e+08, 8.817011e-02, 7.624912e-01, 2.793204e+00, -6.709578e-01, 9.915085e-11, 2.373812e-10, 3.388269e+01, 6.059704e-02
4.546000e+08, 8.798310e-02, 7.625040e-01, 2.790837e+00, -6.766255e-01, 9.869592e-11, 2.374052e-10, 3.389958e+01, 6.085980e-02
4.584000e+08, 8.779529e-02, 7.625169e-01, 2.788480e+00, -6.822938e-01, 9.824936e-11, 2.374287e-10, 3.391652e+01, 6.111817e-02
4.622000e+08, 8.760667e-02, 7.625297e-01, 2.786134e+00, -6.879627e-01, 9.781100e-11, 2.374517e-10, 3.393351e+01, 6.137218e-02
4.660000e+08, 8.741725e-02, 7.625425e-01, 2.783799e+00, -6.936321e-01, 9.738070e-11, 2.374741e-10, 3.395054e+01, 6.162188e-02
4.698000e+08, 8.722702e-02, 7.625554e-01, 2.781474e+00, -6.993021e-01, 9.695831e-11, 2.374961e-10, 3.396762e+01, 6.186729e-02
4.736000e+08, 8.703598e-02, 7.625683e-01, 2.779159e+00, -7.049726e-01, 9.654365e-11, 2.375175e-10, 3.398475e+01, 6.210846e-02
4.774000e+08, 8.684414e-02, 7.625811e-01, 2.776854e+00, -7.106436e-01, 9.613658e-11, 2.375385e-10, 3.400192e+01, 6.234541e-02
4.812000e+08, 8.665149e-02, 7.625940e-01, 2.774559e+00, -7.163151e-01, 9.573692e-11, 2.375590e-10, 3.401914e+01, 6.257819e-02
4.850000e+08, 8.645802e-02, 7.626069e-01, 2.772273e+00, -7.219870e-01, 9.534452e-11, 2.375790e-10, 3.403641e+01, 6.280683e-02
4.888000e+08, 8.626374e-02, 7.626198e-01, 2.769996e+00, -7.276595e-01, 9.495919e-11, 2.375985e-10, 3.405372e+01, 6.303135e-02
4.926000e+08, 8.606865e-02, 7.626328e-01, 2.767729e+00, -7.333324e-01, 9.458077e-11, 2.376176e-10, 3.407108e+01, 6.325179e-02
4.964000e+08, 8.587273e-02, 7.626457e-01, 2.765471e+00, -7.390058e-01, 9.420908e-11, 2.376363e-10, 3.408848e+01, 6.346817e-02
5.002000e+08, 8.567599e-02, 7.626587e-01, 2.763222e+00, -7.446796e-01, 9.384394e-11, 2.376545e-10, 3.410593e+01, 6.368053e-02
5.040000e+08, 8.547843e-02, 7.626717e-01, 2.760981e+00, -7.503539e-01, 9.348518e-11, 2.376723e-10, 3.412343e+01, 6.388888e-02
5.078000e+08, 8.528003e-02, 7.626847e-01, 2.758749e+00, -7.560286e-01, 9.313260e-11, 2.376897e-10, 3.414097e+01, 6.409326e-02
5.116000e+08, 8.508080e-02, 7.626977e-01, 2.756525e+00, -7.617037e-01, 9.278603e-11, 2.377067e-10, 3.415856e+01, 6.429369e-02
5.154000e+08, 8.488073e-02, 7.627107e-01, 2.754310e+00, -7.673792e-01, 9.244528e-11, 2.377232e-10, 3.417619e+01, 6.449019e-02
5.192000e+08, 8.467982e-02, 7.627238e-01, 2.752103e+00, -7.730551e-01, 9.211016e-11, 2.377394e-10, 3.419387e+01, 6.468279e-02
5.230000e+08, 8.447806e-02, 7.627369e-01, 2.749903e+00, -7.787314e-01, 9.178047e-11, 2.377552e-10, 3.421160e+01, 6.487151e-02
5.268000e+08, 8.427545e-02, 7.627500e-01, 2.747712e+00, -7.844081e-01, 9.145602e-11, 2.377707e-10, 3.422938e+01, 6.505636e-02
5.306000e+08, 8.407199e-02, 7.627631e-01, 2.745528e+00, -7.900851e-01, 9.113661e-11, 2.377858e-10, 3.424720e+01, 6.523736e-02
5.344000e+08, 8.386766e-02, 7.627762e-01, 2.743352e+00, -7.957625e-01, 9.082204e-11, 2.378005e-10, 3.426507e+01, 6.541454e-02
5.382000e+08, 8.366247e-02, 7.627894e-01, 2.741184e+00, -8.014403e-01, 9.051211e-11, 2.378149e-10, 3.428299e+01, 6.558791e-02
5.420000e+08, 8.345640e-02, 7.628026e-01, 2.739023e+00, -8.071184e-01, 9.020662e-11, 2.378289e-10, 3.430096e+01, 6.575748e-02
5.458000e+08, 8.324945e-02, 7.628158e-01, 2.736869e+00, -8.127968e-01, 8.990535e-11, 2.378426e-10, 3.431897e+01, 6.592327e-02
5.496000e+08, 8.304163e-02, 7.628291e-01, 2.734722e+00, -8.184755e-01, 8.960811e-11, 2.378560e-10, 3.433703e+01, 6.608529e-02
5.534000e+08, 8.283291e-02, 7.628423e-01, 2.732583e+00, -8.241546e-01, 8.931468e-11, 2.378691e-10, 3.435514e+01, 6.624356e-02
5.572000e+08, 8.262330e-02, 7.628556e-01, 2.730451e+00, -8.298340e-01, 8.902485e-11, 2.378818e-10, 3.437329e+01, 6.639808e-02
5.610000e+08, 8.241278e-02, 7.628690e-01, 2.728325e+00, -8.355137e-01, 8.873839e-11, 2.378943e-10, 3.439150e+01, 6.654886e-02
5.648000e+08, 8.220136e-02, 7.628823e-01, 2.726206e+00, -8.411937e-01, 8.845511e-11, 2.379065e-10, 3.440975e+01, 6.669592e-02
5.686000e+08, 8.198903e-02, 7.628957e-01, 2.724094e+00, -8.468740e-01, 8.817477e-11, 2.379184e-10, 3.442806e+01, 6.683927e-02
5.724000e+08, 8.177577e-02, 7.629092e-01, 2.721989e+00, -8.525545e-01, 8.789716e-11, 2.379300e-10, 3.444641e+01, 6.697890e-02
5.762000e+08, 8.156159e-02, 7.629226e-01, 2.719890e+00, -8.582354e-01, 8.762205e-11, 2.379413e-10, 3.446481e+01, 6.711482e-02
5.800000e+08, 8.134647e-02, 7.629361e-01, 2.717798e+00, -8.639165e-01, 8.734922e-11, 2.379524e-10, 3.448326e+01, 6.724705e-02
5.838000e+08, 8.113042e-02, 7.629496e-01, 2.715713e+00, -8.695978e-01, 8.707844e-11, 2.379632e-10, 3.450176e+01, 6.737558e-02
5.876000e+08, 8.091341e-02, 7.629632e-01, 2.713634e+00, -8.752795e-01, 8.680949e-11, 2.379738e-10, 3.452031e+01, 6.750041e-02
5.914000e+08, 8.069545e-02, 7.629768e-01, 2.711561e+00, -8.809614e-01, 8.654213e-11, 2.379841e-10, 3.453891e+01, 6.762156e-02
5.952000e+08, 8.047654e-02, 7.629904e-01, 2.709495e+00, -8.866435e-01, 8.627613e-11, 2.379943e-10, 3.455756e+01, 6.773901e-02
5.990000e+08, 8.025665e-02, 7.630041e-01, 2.707435e+00, -8.923259e-01, 8.601126e-11, 2.380041e-10, 3.457626e+01, 6.785277e-02
6.028000e+08, 8.003579e-02, 7.630178e-01, 2.705381e+00, -8.980085e-01, 8.574727e-11, 2.380138e-10, 3.459501e+01, 6.796284e-02
6.066000e+08, 7.981395e-02, 7.630315e-01, 2.703334e+00, -9.036913e-01, 8.548395e-11, 2.380232e-10, 3.461381e+01, 6.806922e-02
6.104000e+08, 7.959112e-02, 7.630453e-01, 2.701293e+00, -9.093744e-01, 8.522103e-11, 2.380325e-10, 3.463266e+01, 6.817190e-02
6.142000e+08, 7.936729e-02, 7.630592e-01, 2.699258e+00, -9.150577e-01, 8.495828e-11, 2.380415e-10, 3.465156e+01, 6.827088e-02
6.180000e+08, 7.914246e-02, 7.630730e-01, 2.697230e+00, -9.207412e-01, 8.469546e-11, 2.380503e-10, 3.467051e+01, 6.836616e-02
6.218000e+08, 7.891663e-02, 7.630869e-01, 2.695207e+00, -9.264249e-01, 8.443232e-11, 2.380590e-10, 3.468951e+01, 6.845772e-02
6.256000e+08, 7.868977e-02, 7.631009e-01, 2.693191e+00, -9.321088e-01, 8.416862e-11, 2.380675e-10, 3.470856e+01, 6.854557e-02
6.294000e+08, 7.846189e-02, 7.631149e-01, 2.691182e+00, -9.377930e-01, 8.390410e-11, 2.380757e-10, 3.472766e+01, 6.862970e-02
6.332000e+08, 7.823298e-02, 7.631289e-01, 2.689179e+00, -9.434773e-01, 8.363851e-11, 2.380839e-10, 3.474682e+01, 6.871009e-02
6.370000e+08, 7.800304e-02, 7.631430e-01, 2.687182e+00, -9.491618e-01, 8.337160e-11, 2.380918e-10, 3.476602e+01, 6.878675e-02
6.408000e+08, 7.777204e-02, 7.631571e-01, 2.685191e+00, -9.548465e-01, 8.310311e-11, 2.380996e-10, 3.478528e+01, 6.885966e-02
6.446000e+08, 7.754000e-02, 7.631713e-01, 2.683207e+00, -9.605314e-01, 8.283279e-11, 2.381073e-10, 3.480458e+01, 6.892880e-02
6.484000e+08, 7.730690e-02, 7.631855e-01, 2.681229e+00, -9.662165e-01, 8.256037e-11, 2.381148e-10, 3.482394e+01, 6.899418e-02
6.522000e+08, 7.707273e-02, 7.631997e-01, 2.679258e+00, -9.719017e-01, 8.228559e-11, 2.381221e-10, 3.484334e+01, 6.905577e-02
6.560000e+08, 7.683749e-02, 7.632140e-01, 2.677293e+00, -9.775871e-01, 8.200819e-11, 2.381294e-10, 3.486280e+01, 6.911357e-02
6.598000e+08, 7.660117e-02, 7.632284e-01, 2.675335e+00, -9.832727e-01, 8.172790e-11, 2.381364e-10, 3.488231e+01, 6.916756e-02
6.636000e+08, 7.636377e-02, 7.632428e-01, 2.673384e+00, -9.889585e-01, 8.144445e-11, 2.381434e-10, 3.490187e+01, 6.921773e-02
6.674000e+08, 7.612527e-02, 7.632572e-01, 2.671439e+00, -9.946445e-01, 8.115758e-11, 2.381503e-10, 3.492148e+01, 6.926406e-02
6.712000e+08, 7.588568e-02, 7.632717e-01, 2.669501e+00, -1.000331e+00, 8.086700e-11, 2.381570e-10, 3.494114e+01, 6.930655e-02
6.750000e+08, 7.564498e-02, 7.632863e-01, 2.667571e+00, -1.006017e+00, 8.057244e-11, 2.381636e-10, 3.496085e+01, 6.934517e-02
6.788000e+08, 7.540317e-02, 7.633008e-01, 2.665647e+00, -1.011703e+00, 8.027361e-11, 2.381701e-10, 3.498060e+01, 6.937990e-02
6.826000e+08, 7.516024e-02, 7.633155e-01, 2.663730e+00, -1.017390e+00, 7.997025e-11, 2.381765e-10, 3.500041e+01, 6.941073e-02
6.864000e+08, 7.491619e-02, 7.633302e-01, 2.661821e+00, -1.023077e+00, 7.966206e-11, 2.381828e-10, 3.502027e+01, 6.943765e-02
6.902000e+08, 7.467100e-02, 7.633449e-01, 2.659919e+00, -1.028763e+00, 7.934876e-11, 2.381891e-10, 3.504018e+01, 6.946064e-02
6.940000e+08, 7.442469e-02, 7.633597e-01, 2.658024e+00, -1.034450e+00, 7.903005e-11, 2.381952e-10, 3.506013e+01, 6.947967e-02
6.978000e+08, 7.417723e-02, 7.633745e-01, 2.656137e+00, -1.040138e+00, 7.870565e-11, 2.382013e-10, 3.508014e+01, 6.949472e-02
7.016000e+08, 7.392862e-02, 7.633894e-01, 2.654258e+00, -1.045825e+00, 7.837524e-11, 2.382072e-10, 3.510019e+01, 6.950579e-02
7.054000e+08, 7.367886e-02, 7.634043e-01, 2.652387e+00, -1.051512e+00, 7.803855e-11, 2.382131e-10, 3.512029e+01, 6.951285e-02
7.092000e+08, 7.342795e-02, 7.634193e-01, 2.650524e+00, -1.057200e+00, 7.769525e-11, 2.382190e-10, 3.514044e+01, 6.951587e-02
7.130000e+08, 7.317587e-02, 7.634344e-01, 2.648669e+00, -1.062888e+00, 7.734505e-11, 2.382247e-10, 3.516063e+01, 6.951484e-02
7.168000e+08, 7.292262e-02, 7.634494e-01, 2.646822e+00, -1.068576e+00, 7.698763e-11, 2.382304e-10, 3.518088e+01, 6.950974e-02
7.206000e+08, 7.266820e-02, 7.634646e-01, 2.644984e+00, -1.074264e+00, 7.662268e-11, 2.382361e-10, 3.520116e+01, 6.950054e-02
7.244000e+08, 7.241260e-02, 7.634798e-01, 2.643154e+00, -1.079952e+00, 7.624988e-11, 2.382417e-10, 3.522150e+01, 6.948722e-02
7.282000e+08, 7.215582e-02, 7.634950e-01, 2.641334e+00, -1.085640e+00, 7.586891e-11, 2.382472e-10, 3.524188e+01, 6.946977e-02
7.320000e+08, 7.189785e-02, 7.635103e-01, 2.639522e+00, -1.091328e+00, 7.547944e-11, 2.382527e-10, 3.526230e+01, 6.944815e-02
7.358000e+08, 7.163869e-02, 7.635256e-01, 2.637720e+00, -1.097017e+00, 7.508113e-11, 2.382582e-10, 3.528277e+01, 6.942235e-02
7.396000e+08, 7.137834e-02, 7.635410e-01, 2.635928e+00, -1.102706e+00, 7.467367e-11, 2.382636e-10, 3.530328e+01, 6.939234e-02
7.434000e+08, 7.111678e-02, 7.635564e-01, 2.634145e+00, -1.108395e+00, 7.425669e-11, 2.382690e-10, 3.532384e+01, 6.935810e-02
7.472000e+08, 7.085403e-02, 7.635719e-01, 2.632372e+00, -1.114083e+00, 7.382987e-11, 2.382743e-10, 3.534444e+01, 6.931960e-02
7.510000e+08, 7.059006e-02, 7.635874e-01, 2.630609e+00, -1.119773e+00, 7.339284e-11, 2.382796e-10, 3.536508e+01, 6.927682e-02
7.548000e+08, 7.032489e-02, 7.636030e-01, 2.628857e+00, -1.125462e+00, 7.294526e-11, 2.382849e-10, 3.538576e+01, 6.922974e-02
7.586000e+08, 7.005850e-02, 7.636186e-01, 2.627115e+00, -1.131151e+00, 7.248676e-11, 2.382902e-10, 3.540648e+01, 6.917833e-02
7.624000e+08, 6.979090e-02, 7.636343e-01, 2.625384e+00, -1.136840e+00, 7.201697e-11, 2.382954e-10, 3.542724e+01, 6.912257e-02
7.662000e+08, 6.952208e-02, 7.636500e-01, 2.623665e+00, -1.142530e+00, 7.153553e-11, 2.383007e-10, 3.544805e+01, 6.906243e-02
7.700000e+08, 6.925204e-02, 7.636657e-01, 2.621957e+00, -1.148220e+00, 7.104205e-11, 2.383059e-10, 3.546888e+01, 6.899788e-02
7.738000e+08, 6.898077e-02, 7.636816e-01, 2.620261e+00, -1.153910e+00, 7.053615e-11, 2.383111e-10, 3.548976e+01, 6.892891e-02
7.776000e+08, 6.870828e-02, 7.636974e-01, 2.618576e+00, -1.159599e+00, 7.001744e-11, 2.383163e-10, 3.551068e+01, 6.885549e-02
7.814000e+08, 6.843456e-02, 7.637133e-01, 2.616905e+00, -1.165290e+00, 6.948551e-11, 2.383214e-10, 3.553163e+01, 6.877759e-02
7.852000e+08, 6.815961e-02, 7.637293e-01, 2.615246e+00, -1.170980e+00, 6.893998e-11, 2.383266e-10, 3.555261e+01, 6.869518e-02
7.890000e+08, 6.788344e-02, 7.637452e-01, 2.613600e+00, -1.176670e+00, 6.838041e-11, 2.383318e-10, 3.557363e+01, 6.860825e-02
7.928000e+08, 6.760603e-02, 7.637613e-01, 2.611967e+00, -1.182360e+00, 6.780640e-11, 2.383370e-10, 3.559468e+01, 6.851676e-02
