Frequency [Hz], |S00| [-], |S10| [-], Arg(S00) [-], Arg(S10) [-], Delay 0>0 [s], Delay 0>1 [s], |Z0| [Ohm] , Arg(Z0) [-]
2.000000e+08, 9.398665e-02, 7.689672e-01, 2.935254e+00, -3.002334e-01, 1.208175e-10, 2.423278e-10, 3.326285e+01, 3.883520e-02
2.038000e+08, 9.385778e-02, 7.689526e-01, 2.932369e+00, -3.060192e-01, 1.211002e-10, 2.422494e-10, 3.327512e+01, 3.931479e-02
2.076000e+08, 9.372669e-02, 7.689381e-01, 2.929478e+00, -3.118032e-01, 1.213437e-10, 2.421747e-10, 3.328758e+01, 3.979285e-02
2.114000e+08, 9.359341e-02, 7.689236e-01, 2.926581e+00, -3.175854e-01, 1.215506e-10, 2.421033e-10, 3.330024e+01, 4.026915e-02
2.152000e+08, 9.345794e-02, 7.689091e-01, 2.923679e+00, -3.233659e-01, 1.217233e-10, 2.420352e-10, 3.331310e+01, 4.074349e-02
2.190000e+08, 9.332028e-02, 7.688947e-01, 2.920772e+00, -3.291447e-01, 1.218640e-10, 2.419701e-10, 3.332615e+01, 4.121568e-02
2.228000e+08, 9.318045e-02, 7.688803e-01, 2.917863e+00, -3.349220e-01, 1.219747e-10, 2.419078e-10, 3.333939e+01, 4.168553e-02
2.266000e+08, 9.303846e-02, 7.688660e-01, 2.914950e+00, -3.406978e-01, 1.220572e-10, 2.418482e-10, 3.335283e+01, 4.215288e-02
2.304000e+08, 9.289431e-02, 7.688517e-01, 2.912036e+00, -3.464722e-01, 1.221132e-10, 2.417911e-10, 3.336645e+01, 4.261756e-02
2.342000e+08, 9.274801e-02, 7.688375e-01, 2.909121e+00, -3.522453e-01, 1.221443e-10, 2.417363e-10, 3.338025e+01, 4.307941e-02
2.380000e+08, 9.259958e-02, 7.688234e-01, 2.906204e+00, -3.580170e-01, 1.221520e-10, 2.416838e-10, 3.339425e+01, 4.353831e-02
2.418000e+08, 9.244901e-02, 7.688094e-01, 2.903288e+00, -3.637874e-01, 1.221375e-10, 2.416333e-10, 3.340842e+01, 4.399409e-02
2.456000e+08, 9.229633e-02, 7.687955e-01, 2.900372e+00, -3.695567e-01, 1.221022e-10, 2.415849e-10, 3.342277e+01, 4.444665e-02
2.494000e+08, 9.214154e-02, 7.687817e-01, 2.897456e+00, -3.753248e-01, 1.220471e-10, 2.415384e-10, 3.343731e+01, 4.489585e-02
2.532000e+08, 9.198465e-02, 7.687680e-01, 2.894542e+00, -3.810918e-01, 1.219733e-10, 2.414936e-10, 3.345202e+01, 4.534158e-02
2.570000e+08, 9.182566e-02, 7.687545e-01, 2.891630e+00, -3.868577e-01, 1.218819e-10, 2.414506e-10, 3.346691e+01, 4.578372e-02
2.608000e+08, 9.166460e-02, 7.687410e-01, 2.888720e+00, -3.926226e-01, 1.217736e-10, 2.414093e-10, 3.348197e+01, 4.622217e-02
2.646000e+08, 9.150145e-02, 7.687277e-01, 2.885812e+00, -3.983865e-01, 1.216495e-10, 2.413694e-10, 3.349720e+01, 4.665682e-02
2.684000e+08, 9.133624e-02, 7.687146e-01, 2.882908e+00, -4.041495e-01, 1.215103e-10, 2.413311e-10, 3.351261e+01, 4.708759e-02
2.722000e+08, 9.116897e-02, 7.687016e-01, 2.880007e+00, -4.099116e-01, 1.213566e-10, 2.412942e-10, 3.352818e+01, 4.751437e-02
2.760000e+08, 9.099965e-02, 7.686887e-01, 2.877109e+00, -4.156727e-01, 1.211893e-10, 2.412587e-10, 3.354392e+01, 4.793708e-02
2.798000e+08, 9.082829e-02, 7.686760e-01, 2.874216e+00, -4.214330e-01, 1.210089e-10, 2.412245e-10, 3.355983e+01, 4.835563e-02
2.836000e+08, 9.065489e-02, 7.686635e-01, 2.871326e+00, -4.271925e-01, 1.208160e-10, 2.411916e-10, 3.357590e+01, 4.876995e-02
2.874000e+08, 9.047948e-02, 7.686512e-01, 2.868442e+00, -4.329513e-01, 1.206113e-10, 2.411599e-10, 3.359213e+01, 4.917996e-02
2.912000e+08, 9.030204e-02, 7.686390e-01, 2.865562e+00, -4.387092e-01, 1.203951e-10, 2.411294e-10, 3.360852e+01, 4.958558e-02
2.950000e+08, 9.012260e-02, 7.686271e-01, 2.862688e+00, -4.444664e-01, 1.201681e-10, 2.411000e-10, 3.362508e+01, 4.998674e-02
2.988000e+08, 8.994115e-02, 7.686153e-01, 2.859818e+00, -4.502230e-01, 1.199305e-10, 2.410717e-10, 3.364178e+01, 5.038338e-02
3.026000e+08, 8.975772e-02, 7.686038e-01, 2.856955e+00, -4.559788e-01, 1.196830e-10, 2.410444e-10, 3.365865e+01, 5.077543e-02
3.064000e+08, 8.957230e-02, 7.685924e-01, 2.854097e+00, -4.617340e-01, 1.194257e-10, 2.410182e-10, 3.367567e+01, 5.116282e-02
3.102000e+08, 8.938490e-02, 7.685813e-01, 2.851246e+00, -4.674886e-01, 1.191592e-10, 2.409930e-10, 3.369284e+01, 5.154550e-02
3.140000e+08, 8.919553e-02, 7.685704e-01, 2.848401e+00, -4.732426e-01, 1.188837e-10, 2.409687e-10, 3.371016e+01, 5.192342e-02
3.178000e+08, 8.900420e-02, 7.685597e-01, 2.845562e+00, -4.789960e-01, 1.185996e-10, 2.409453e-10, 3.372763e+01, 5.229651e-02
3.216000e+08, 8.881092e-02, 7.685493e-01, 2.842731e+00, -4.847488e-01, 1.183070e-10, 2.409229e-10, 3.374524e+01, 5.266472e-02
3.254000e+08, 8.861569e-02, 7.685391e-01, 2.839906e+00, -4.905011e-01, 1.180064e-10, 2.409013e-10, 3.376301e+01, 5.302800e-02
3.292000e+08, 8.841852e-02, 7.685291e-01, 2.837088e+00, -4.962529e-01, 1.176979e-10, 2.408806e-10, 3.378092e+01, 5.338630e-02
3.330000e+08, 8.821941e-02, 7.685194e-01, 2.834278e+00, -5.020042e-01, 1.173817e-10, 2.408608e-10, 3.379897e+01, 5.373957e-02
3.368000e+08, 8.801839e-02, 7.685099e-01, 2.831476e+00, -5.077550e-01, 1.170582e-10, 2.408417e-10, 3.381716e+01, 5.408778e-02
3.406000e+08, 8.781544e-02, 7.685007e-01, 2.828681e+00, -5.135054e-01, 1.167273e-10, 2.408234e-10, 3.383549e+01, 5.443086e-02
3.444000e+08, 8.761058e-02, 7.684918e-01, 2.825894e+00, -5.192553e-01, 1.163894e-10, 2.408059e-10, 3.385396e+01, 5.476879e-02
3.482000e+08, 8.740382e-02, 7.684831e-01, 2.823115e+00, -5.250048e-01, 1.160446e-10, 2.407892e-10, 3.387257e+01, 5.510152e-02
3.520000e+08, 8.719516e-02, 7.684747e-01, 2.820344e+00, -5.307539e-01, 1.156929e-10, 2.407732e-10, 3.389131e+01, 5.542901e-02
3.558000e+08, 8.698461e-02, 7.684666e-01, 2.817582e+00, -5.365026e-01, 1.153346e-10, 2.407579e-10, 3.391018e+01, 5.575122e-02
3.596000e+08, 8.677217e-02, 7.684588e-01, 2.814828e+00, -5.422510e-01, 1.149698e-10, 2.407433e-10, 3.392919e+01, 5.606811e-02
3.634000e+08, 8.655785e-02, 7.684512e-01, 2.812083e+00, -5.479990e-01, 1.145984e-10, 2.407294e-10, 3.394833e+01, 5.637965e-02
3.672000e+08, 8.634167e-02, 7.684439e-01, 2.809347e+00, -5.537467e-01, 1.142207e-10, 2.407161e-10, 3.396759e+01, 5.668580e-02
3.710000e+08, 8.612362e-02, 7.684369e-01, 2.806620e+00, -5.594940e-01, 1.138367e-10, 2.407035e-10, 3.398699e+01, 5.698654e-02
3.748000e+08, 8.590370e-02, 7.684302e-01, 2.803902e+00, -5.652411e-01, 1.134465e-10, 2.406916e-10, 3.400651e+01, 5.728181e-02
3.786000e+08, 8.568194e-02, 7.684238e-01, 2.801193e+00, -5.709879e-01, 1.130500e-10, 2.406803e-10, 3.402615e+01, 5.757161e-02
3.824000e+08, 8.545833e-02, 7.684177e-01, 2.798494e+00, -5.767344e-01, 1.126474e-10, 2.406696e-10, 3.404592e+01, 5.785588e-02
3.862000e+08, 8.523287e-02, 7.684119e-01, 2.795804e+00, -5.824806e-01, 1.122386e-10, 2.406595e-10, 3.406581e+01, 5.813461e-02
3.900000e+08, 8.500558e-02, 7.684064e-01, 2.793125e+00, -5.882267e-01, 1.118237e-10, 2.406500e-10, 3.408582e+01, 5.840776e-02
3.938000e+08, 8.477646e-02, 7.684011e-01, 2.790455e+00, -5.939724e-01, 1.114026e-10, 2.406411e-10, 3.410595e+01, 5.867530e-02
3.976000e+08, 8.454552e-02, 7.683962e-01, 2.787795e+00, -5.997180e-01, 1.109755e-10, 2.406327e-10, 3.412619e+01, 5.893721e-02
4.014000e+08, 8.431276e-02, 7.683916e-01, 2.785145e+00, -6.054634e-01, 1.105421e-10, 2.406250e-10, 3.414655e+01, 5.919346e-02
4.052000e+08, 8.407819e-02, 7.683873e-01, 2.782506e+00, -6.112086e-01, 1.101026e-10, 2.406177e-10, 3.416703e+01, 5.944402e-02
4.090000e+08, 8.384181e-02, 7.683833e-01, 2.779877e+00, -6.169536e-01, 1.096568e-10, 2.406110e-10, 3.418762e+01, 5.968887e-02
4.128000e+08, 8.360363e-02, 7.683797e-01, 2.777259e+00, -6.226984e-01, 1.092048e-10, 2.406048e-10, 3.420831e+01, 5.992798e-02
4.166000e+08, 8.336365e-02, 7.683763e-01, 2.774651e+00, -6.284431e-01, 1.087464e-10, 2.405992e-10, 3.422912e+01, 6.016132e-02
4.204000e+08, 8.312188e-02, 7.683732e-01, 2.772055e+00, -6.341877e-01, 1.082817e-10, 2.405940e-10, 3.425004e+01, 6.038888e-02
4.242000e+08, 8.287833e-02, 7.683705e-01, 2.769470e+00, -6.399322e-01, 1.078105e-10, 2.405894e-10, 3.427107e+01, 6.061062e-02
4.280000e+08, 8.263300e-02, 7.683681e-01, 2.766896e+00, -6.456765e-01, 1.073328e-10, 2.405852e-10, 3.429220e+01, 6.082653e-02
4.318000e+08, 8.238589e-02, 7.683659e-01, 2.764333e+00, -6.514207e-01, 1.068484e-10, 2.405815e-10, 3.431343e+01, 6.103658e-02
4.356000e+08, 8.213702e-02, 7.683641e-01, 2.761782e+00, -6.571649e-01, 1.063573e-10, 2.405783e-10, 3.433477e+01, 6.124075e-02
4.394000e+08, 8.188638e-02, 7.683626e-01, 2.759242e+00, -6.629090e-01, 1.058594e-10, 2.405756e-10, 3.435621e+01, 6.143902e-02
4.432000e+08, 8.163398e-02, 7.683615e-01, 2.756715e+00, -6.686530e-01, 1.053545e-10, 2.405733e-10, 3.437774e+01, 6.163137e-02
4.470000e+08, 8.137983e-02, 7.683606e-01, 2.754199e+00, -6.743969e-01, 1.048425e-10, 2.405715e-10, 3.439938e+01, 6.181777e-02
4.508000e+08, 8.112392e-02, 7.683601e-01, 2.751696e+00, -6.801408e-01, 1.043234e-10, 2.405701e-10, 3.442111e+01, 6.199820e-02
4.546000e+08, 8.086628e-02, 7.683598e-01, 2.749205e+00, -6.858847e-01, 1.037969e-10, 2.405691e-10, 3.444294e+01, 6.217265e-02
4.584000e+08, 8.060690e-02, 7.683599e-01, 2.746727e+00, -6.916286e-01, 1.032629e-10, 2.405686e-10, 3.446486e+01, 6.234109e-02
4.622000e+08, 8.034578e-02, 7.683603e-01, 2.744262e+00, -6.973724e-01, 1.027213e-10, 2.405684e-10, 3.448688e+01, 6.250350e-02
4.660000e+08, 8.008294e-02, 7.683610e-01, 2.741809e+00, -7.031162e-01, 1.021719e-10, 2.405687e-10, 3.450898e+01, 6.265986e-02
4.698000e+08, 7.981837e-02, 7.683620e-01, 2.739369e+00, -7.088601e-01, 1.016145e-10, 2.405694e-10, 3.453118e+01, 6.281016e-02
4.736000e+08, 7.955208e-02, 7.683633e-01, 2.736943e+00, -7.146039e-01, 1.010489e-10, 2.405705e-10, 3.455346e+01, 6.295438e-02
4.774000e+08, 7.928409e-02, 7.683649e-01, 2.734531e+00, -7.203478e-01, 1.004750e-10, 2.405719e-10, 3.457583e+01, 6.309249e-02
4.812000e+08, 7.901438e-02, 7.683669e-01, 2.732132e+00, -7.260917e-01, 9.989264e-11, 2.405738e-10, 3.459829e+01, 6.322448e-02
4.850000e+08, 7.874297e-02, 7.683691e-01, 2.729747e+00, -7.318357e-01, 9.930150e-11, 2.405760e-10, 3.462083e+01, 6.335032e-02
4.888000e+08, 7.846987e-02, 7.683716e-01, 2.727376e+00, -7.375797e-01, 9.870142e-11, 2.405786e-10, 3.464345e+01, 6.347001e-02
4.926000e+08, 7.819507e-02, 7.683745e-01, 2.725019e+00, -7.433238e-01, 9.809218e-11, 2.405815e-10, 3.466615e+01, 6.358352e-02
4.964000e+08, 7.791858e-02, 7.683776e-01, 2.722677e+00, -7.490680e-01, 9.747356e-11, 2.405848e-10, 3.468893e+01, 6.369084e-02
5.002000e+08, 7.764042e-02, 7.683811e-01, 2.720350e+00, -7.548122e-01, 9.684533e-11, 2.405884e-10, 3.471179e+01, 6.379194e-02
5.040000e+08, 7.736057e-02, 7.683848e-01, 2.718038e+00, -7.605565e-01, 9.620724e-11, 2.405924e-10, 3.473472e+01, 6.388682e-02
5.078000e+08, 7.707906e-02, 7.683888e-01, 2.715740e+00, -7.663009e-01, 9.555904e-11, 2.405967e-10, 3.475773e+01, 6.397545e-02
5.116000e+08, 7.679588e-02, 7.683931e-01, 2.713459e+00, -7.720454e-01, 9.490048e-11, 2.406013e-10, 3.478081e+01, 6.405781e-02
5.154000e+08, 7.651104e-02, 7.683977e-01, 2.711193e+00, -7.777900e-01, 9.423128e-11, 2.406063e-10, 3.480396e+01, 6.413389e-02
5.192000e+08, 7.622455e-02, 7.684026e-01, 2.708943e+00, -7.835348e-01, 9.355118e-11, 2.406115e-10, 3.482719e+01, 6.420368e-02
5.230000e+08, 7.593640e-02, 7.684078e-01, 2.706710e+00, -7.892797e-01, 9.285988e-11, 2.406171e-10, 3.485048e+01, 6.426716e-02
5.268000e+08, 7.564661e-02, 7.684133e-01, 2.704492e+00, -7.950247e-01, 9.215710e-11, 2.406230e-10, 3.487384e+01, 6.432430e-02
5.306000e+08, 7.535519e-02, 7.684190e-01, 2.702292e+00, -8.007698e-01, 9.144253e-11, 2.406291e-10, 3.489726e+01, 6.437510e-02
5.344000e+08, 7.506213e-02, 7.684251e-01, 2.700109e+00, -8.065151e-01, 9.071586e-11, 2.406356e-10, 3.492075e+01, 6.441954e-02
5.382000e+08, 7.476745e-02, 7.684313e-01, 2.697943e+00, -8.122605e-01, 8.997677e-11, 2.406423e-10, 3.494430e+01, 6.445760e-02
5.420000e+08, 7.447115e-02, 7.684379e-01, 2.695794e+00, -8.180061e-01, 8.922493e-11, 2.406493e-10, 3.496791e+01, 6.448927e-02
5.458000e+08, 7.417323e-02, 7.684447e-01, 2.693664e+00, -8.237519e-01, 8.846000e-11, 2.406566e-10, 3.499157e+01, 6.451453e-02
5.496000e+08, 7.387371e-02, 7.684518e-01, 2.691552e+00, -8.294978e-01, 8.768163e-11, 2.406641e-10, 3.501530e+01, 6.453337e-02
5.534000e+08, 7.357258e-02, 7.684592e-01, 2.689459e+00, -8.352440e-01, 8.688945e-11, 2.406719e-10, 3.503908e+01, 6.454577e-02
5.572000e+08, 7.326986e-02, 7.684668e-01, 2.687384e+00, -8.409903e-01, 8.608311e-11, 2.406800e-10, 3.506291e+01, 6.455171e-02
5.610000e+08, 7.296555e-02, 7.684747e-01, 2.685329e+00, -8.467368e-01, 8.526221e-11, 2.406883e-10, 3.508680e+01, 6.455119e-02
5.648000e+08, 7.265966e-02, 7.684828e-01, 2.683293e+00, -8.524835e-01, 8.442636e-11, 2.406968e-10, 3.511074e+01, 6.454419e-02
5.686000e+08, 7.235219e-02, 7.684912e-01, 2.681277e+00, -8.582304e-01, 8.357516e-11, 2.407056e-10, 3.513472e+01, 6.453070e-02
5.724000e+08, 7.204316e-02, 7.684998e-01, 2.679282e+00, -8.639775e-01, 8.270820e-11, 2.407146e-10, 3.515876e+01, 6.451069e-02
5.762000e+08, 7.173257e-02, 7.685087e-01, 2.677307e+00, -8.697248e-01, 8.182504e-11, 2.407238e-10, 3.518283e+01, 6.448416e-02
5.800000e+08, 7.142042e-02, 7.685178e-01, 2.675353e+00, -8.754723e-01, 8.092526e-11, 2.407333e-10, 3.520695e+01, 6.445109e-02
5.838000e+08, 7.110672e-02, 7.685272e-01, 2.673421e+00, -8.812201e-01, 8.000839e-11, 2.407430e-10, 3.523112e+01, 6.441148e-02
5.876000e+08, 7.079149e-02, 7.685367e-01, 2.671511e+00, -8.869681e-01, 7.907398e-11, 2.407528e-10, 3.525532e+01, 6.436529e-02
5.914000e+08, 7.047473e-02, 7.685465e-01, 2.669623e+00, -8.927164e-01, 7.812154e-11, 2.407629e-10, 3.527956e+01, 6.431254e-02
5.952000e+08, 7.015644e-02, 7.685565e-01, 2.667758e+00, -8.984648e-01, 7.715059e-11, 2.407732e-10, 3.530384e+01, 6.425319e-02
5.990000e+08, 6.983664e-02, 7.685668e-01, 2.665916e+00, -9.042136e-01, 7.616063e-11, 2.407837e-10, 3.532816e+01, 6.418724e-02
6.028000e+08, 6.951534e-02, 7.685773e-01, 2.664097e+00, -9.099625e-01, 7.515112e-11, 2.407943e-10, 3.535250e+01, 6.411467e-02
6.066000e+08, 6.919254e-02, 7.685879e-01, 2.662303e+00, -9.157118e-01, 7.412155e-11, 2.408052e-10, 3.537688e+01, 6.403548e-02
6.104000e+08, 6.886824e-02, 7.685988e-01, 2.660533e+00, -9.214613e-01, 7.307136e-11, 2.408162e-10, 3.540128e+01, 6.394965e-02
6.142000e+08, 6.854247e-02, 7.686099e-01, 2.658788e+00, -9.272110e-01, 7.199999e-11, 2.408274e-10, 3.542572e+01, 6.385717e-02
6.180000e+08, 6.821523e-02, 7.686212e-01, 2.657069e+00, -9.329610e-01, 7.090686e-11, 2.408387e-10, 3.545018e+01, 6.375803e-02
6.218000e+08, 6.788653e-02, 7.686327e-01, 2.655376e+00, -9.387113e-01, 6.979138e-11, 2.408503e-10, 3.547466e+01, 6.365222e-02
6.256000e+08, 6.755637e-02, 7.686444e-01, 2.653710e+00, -9.444619e-01, 6.865292e-11, 2.408620e-10, 3.549916e+01, 6.353972e-02
6.294000e+08, 6.722478e-02, 7.686562e-01, 2.652071e+00, -9.502127e-01, 6.749086e-11, 2.408738e-10, 3.552369e+01, 6.342053e-02
6.332000e+08, 6.689175e-02, 7.686683e-01, 2.650459e+00, -9.559639e-01, 6.630456e-11, 2.408858e-10, 3.554823e+01, 6.329464e-02
6.370000e+08, 6.655730e-02, 7.686805e-01, 2.648876e+00, -9.617153e-01, 6.509334e-11, 2.408979e-10, 3.557279e+01, 6.316203e-02
6.408000e+08, 6.622145e-02, 7.686929e-01, 2.647322e+00, -9.674670e-01, 6.385652e-11, 2.409102e-10, 3.559736e+01, 6.302269e-02
6.446000e+08, 6.588419e-02, 7.687055e-01, 2.645798e+00, -9.732190e-01, 6.259339e-11, 2.409226e-10, 3.562194e+01, 6.287663e-02
6.484000e+08, 6.554555e-02, 7.687183e-01, 2.644303e+00, -9.789713e-01, 6.130323e-11, 2.409352e-10, 3.564653e+01, 6.272382e-02
6.522000e+08, 6.520553e-02, 7.687312e-01, 2.642839e+00, -9.847239e-01, 5.998529e-11, 2.409479e-10, 3.567113e+01, 6.256426e-02
6.560000e+08, 6.486415e-02, 7.687442e-01, 2.641407e+00, -9.904768e-01, 5.863880e-11, 2.409607e-10, 3.569574e+01, 6.239794e-02
6.598000e+08, 6.452141e-02, 7.687575e-01, 2.640007e+00, -9.962300e-01, 5.726296e-11, 2.409736e-10, 3.572035e+01, 6.222485e-02
6.636000e+08, 6.417734e-02, 7.687709e-01, 2.638640e+00, -1.001983e+00, 5.585697e-11, 2.409866e-10, 3.574496e+01, 6.204499e-02
6.674000e+08, 6.383194e-02, 7.687844e-01, 2.637306e+00, -1.007737e+00, 5.441998e-11, 2.409997e-10, 3.576957e+01, 6.185834e-02
6.712000e+08, 6.348523e-02, 7.687981e-01, 2.636007e+00, -1.013491e+00, 5.295114e-11, 2.410130e-10, 3.579418e+01, 6.166490e-02
6.750000e+08, 6.313722e-02, 7.688119e-01, 2.634743e+00, -1.019246e+00, 5.144954e-11, 2.410263e-10, 3.581878e+01, 6.146467e-02
6.788000e+08, 6.278793e-02, 7.688258e-01, 2.633514e+00, -1.025001e+00, 4.991429e-11, 2.410398e-10, 3.584338e+01, 6.125763e-02
6.826000e+08, 6.243737e-02, 7.688399e-01, 2.632322e+00, -1.030756e+00, 4.834442e-11, 2.410533e-10, 3.586797e+01, 6.104379e-02
6.864000e+08, 6.208555e-02, 7.688541e-01, 2.631168e+00, -1.036511e+00, 4.673899e-11, 2.410670e-10, 3.589254e+01, 6.082313e-02
6.902000e+08, 6.173250e-02, 7.688684e-01, 2.630052e+00, -1.042267e+00, 4.509697e-11, 2.410807e-10, 3.591711e+01, 6.059565e-02
6.940000e+08, 6.137822e-02, 7.688828e-01, 2.628975e+00, -1.048023e+00, 4.341735e-11, 2.410945e-10, 3.594165e+01, 6.036134e-02
6.978000e+08, 6.102273e-02, 7.688974e-01, 2.627939e+00, -1.053779e+00, 4.169906e-11, 2.411083e-10, 3.596618e+01, 6.012021e-02
7.016000e+08, 6.066605e-02, 7.689120e-01, 2.626943e+00, -1.059536e+00, 3.994102e-11, 2.411223e-10, 3.599069e+01, 5.987224e-02
7.054000e+08, 6.030820e-02, 7.689268e-01, 2.625990e+00, -1.065293e+00, 3.814209e-11, 2.411363e-10, 3.601518e+01, 5.961744e-02
7.092000e+08, 5.994920e-02, 7.689416e-01, 2.625079e+00, -1.071051e+00, 3.630111e-11, 2.411504e-10, 3.603964e+01, 5.935579e-02
7.130000e+08, 5.958906e-02, 7.689566e-01, 2.624212e+00, -1.076808e+00, 3.441689e-11, 2.411645e-10, 3.606408e+01, 5.908731e-02
7.168000e+08, 5.922780e-02, 7.689716e-01, 2.623390e+00, -1.082566e+00, 3.248821e-11, 2.411788e-10, 3.608848e+01, 5.881197e-02
7.206000e+08, 5.886544e-02, 7.689868e-01, 2.622615e+00, -1.088325e+00, 3.051378e-11, 2.411930e-10, 3.611286e+01, 5.852980e-02
7.244000e+08, 5.850200e-02, 7.690020e-01, 2.621886e+00, -1.094084e+00, 2.849230e-11, 2.412073e-10, 3.613720e+01, 5.824077e-02
7.282000e+08, 5.813750e-02, 7.690172e-01, 2.621206e+00, -1.099843e+00, 2.642243e-11, 2.412217e-10, 3.616150e+01, 5.794490e-02
7.320000e+08, 5.777197e-02, 7.690326e-01, 2.620575e+00, -1.105602e+00, 2.430277e-11, 2.412361e-10, 3.618577e+01, 5.764217e-02
7.358000e+08, 5.740542e-02, 7.690480e-01, 2.619995e+00, -1.111362e+00, 2.213189e-11, 2.412505e-10, 3.620999e+01, 5.733260e-02
7.396000e+08, 5.703788e-02, 7.690635e-01, 2.619466e+00, -1.117122e+00, 1.990832e-11, 2.412650e-10, 3.623417e+01, 5.701618e-02
7.434000e+08, 5.666937e-02, 7.690790e-01, 2.618991e+00, -1.122882e+00, 1.763054e-11, 2.412795e-10, 3.625831e+01, 5.669291e-02
7.472000e+08, 5.629991e-02, 7.690946e-01, 2.618570e+00, -1.128643e+00, 1.529697e-11, 2.412941e-10, 3.628240e+01, 5.636280e-02
7.510000e+08, 5.592954e-02, 7.691103e-01, 2.618205e+00, -1.134404e+00, 1.290600e-11, 2.413087e-10, 3.630643e+01, 5.602584e-02
7.548000e+08, 5.555826e-02, 7.691260e-01, 2.617897e+00, -1.140166e+00, 1.045597e-11, 2.413233e-10, 3.633042e+01, 5.568205e-02
7.586000e+08, 5.518612e-02, 7.691417e-01, 2.617647e+00, -1.145928e+00, 7.945150e-12, 2.413379e-10, 3.635435e+01, 5.533141e-02
7.624000e+08, 5.481313e-02, 7.691575e-01, 2.617457e+00, -1.151690e+00, 5.371781e-12, 2.413525e-10, 3.637821e+01, 5.497395e-02
7.662000e+08, 5.443933e-02, 7.691733e-01, 2.617329e+00, -1.157453e+00, 2.734036e-12, 2.413672e-10, 3.640202e+01, 5.460965e-02
7.700000e+08, 5.406473e-02, 7.691891e-01, 2.617264e+00, -1.163215e+00, 3.003429e-14, 2.413819e-10, 3.642577e+01, 5.423853e-02
7.738000e+08, 5.368939e-02, 7.692050e-01, 2.617263e+00, -1.168979e+00, -2.742161e-12, 2.413965e-10, 3.644945e+01, 5.386059e-02
7.776000e+08, 5.331331e-02, 7.692209e-01, 2.617329e+00, -1.174742e+00, -5.584545e-12, 2.414112e-10, 3.647306e+01, 5.347584e-02
7.814000e+08, 5.293654e-02, 7.692367e-01, 2.617462e+00, -1.180506e+00, -8.499174e-12, 2.414259e-10, 3.649660e+01, 5.308428e-02
7.852000e+08, 5.255910e-02, 7.692526e-01, 2.617665e+00, -1.186271e+00, -1.148817e-11, 2.414406e-10, 3.652007e+01, 5.268593e-02
7.890000e+08, 5.218103e-02, 7.692686e-01, 2.617939e+00, -1.192035e+00, -1.455371e-11, 2.414553e-10, 3.654346e+01, 5.228078e-02
7.928000e+08, 5.180237e-02, 7.692845e-01, 2.618287e+00, -1.197800e+00, -1.769804e-11, 2.414699e-10, 3.656677e+01, 5.186885e-02
