Frequency [Hz], |S00| [-], |S10| [-], Arg(S00) [-], Arg(S10) [-], Delay 0>0 [s], Delay 0>1 [s], |Z0| [Ohm] , Arg(Z0) [-]
2.000000e+08, 9.765211e-02, 7.593231e-01, 2.911487e+00, -4.943449e-01, 3.451355e-10, 3.766932e-10, 3.305732e+01, 4.494364e-02
2.038000e+08, 9.718730e-02, 7.596009e-01, 2.903247e+00, -5.033389e-01, 3.396725e-10, 3.775420e-10, 3.310011e+01, 4.629552e-02
2.076000e+08, 9.671932e-02, 7.598793e-01, 2.895136e+00, -5.123531e-01, 3.343753e-10, 3.783633e-10, 3.314325e+01, 4.760264e-02
2.114000e+08, 9.624817e-02, 7.601580e-01, 2.887153e+00, -5.213870e-01, 3.292316e-10, 3.791585e-10, 3.318673e+01, 4.886606e-02
2.152000e+08, 9.577387e-02, 7.604368e-01, 2.879292e+00, -5.304398e-01, 3.242306e-10, 3.799289e-10, 3.323053e+01, 5.008681e-02
2.190000e+08, 9.529645e-02, 7.607156e-01, 2.871551e+00, -5.395110e-01, 3.193620e-10, 3.806758e-10, 3.327463e+01, 5.126583e-02
2.228000e+08, 9.481594e-02, 7.609942e-01, 2.863926e+00, -5.486001e-01, 3.146167e-10, 3.814003e-10, 3.331901e+01, 5.240404e-02
2.266000e+08, 9.433238e-02, 7.612724e-01, 2.856414e+00, -5.577064e-01, 3.099863e-10, 3.821034e-10, 3.336366e+01, 5.350233e-02
2.304000e+08, 9.384584e-02, 7.615500e-01, 2.849013e+00, -5.668296e-01, 3.054631e-10, 3.827859e-10, 3.340855e+01, 5.456151e-02
2.342000e+08, 9.335635e-02, 7.618269e-01, 2.841719e+00, -5.759690e-01, 3.010401e-10, 3.834488e-10, 3.345367e+01, 5.558240e-02
2.380000e+08, 9.286398e-02, 7.621028e-01, 2.834532e+00, -5.851243e-01, 2.967108e-10, 3.840927e-10, 3.349900e+01, 5.656577e-02
2.418000e+08, 9.236880e-02, 7.623777e-01, 2.827447e+00, -5.942949e-01, 2.924693e-10, 3.847183e-10, 3.354453e+01, 5.751235e-02
2.456000e+08, 9.187087e-02, 7.626514e-01, 2.820464e+00, -6.034805e-01, 2.883103e-10, 3.853262e-10, 3.359024e+01, 5.842288e-02
2.494000e+08, 9.137027e-02, 7.629237e-01, 2.813581e+00, -6.126806e-01, 2.842286e-10, 3.859172e-10, 3.363612e+01, 5.929804e-02
2.532000e+08, 9.086706e-02, 7.631945e-01, 2.806794e+00, -6.218948e-01, 2.802198e-10, 3.864915e-10, 3.368214e+01, 6.013852e-02
2.570000e+08, 9.036133e-02, 7.634636e-01, 2.800104e+00, -6.311227e-01, 2.762796e-10, 3.870499e-10, 3.372829e+01, 6.094496e-02
2.608000e+08, 8.985315e-02, 7.637308e-01, 2.793507e+00, -6.403639e-01, 2.724042e-10, 3.875926e-10, 3.377456e+01, 6.171801e-02
2.646000e+08, 8.934261e-02, 7.639962e-01, 2.787003e+00, -6.496181e-01, 2.685900e-10, 3.881201e-10, 3.382094e+01, 6.245830e-02
2.684000e+08, 8.882977e-02, 7.642594e-01, 2.780590e+00, -6.588849e-01, 2.648337e-10, 3.886329e-10, 3.386740e+01, 6.316643e-02
2.722000e+08, 8.831473e-02, 7.645205e-01, 2.774267e+00, -6.681640e-01, 2.611323e-10, 3.891312e-10, 3.391393e+01, 6.384301e-02
2.760000e+08, 8.779756e-02, 7.647792e-01, 2.768032e+00, -6.774549e-01, 2.574830e-10, 3.896153e-10, 3.396052e+01, 6.448860e-02
2.798000e+08, 8.727834e-02, 7.650355e-01, 2.761885e+00, -6.867574e-01, 2.538832e-10, 3.900858e-10, 3.400716e+01, 6.510379e-02
2.836000e+08, 8.675717e-02, 7.652892e-01, 2.755823e+00, -6.960711e-01, 2.503305e-10, 3.905427e-10, 3.405383e+01, 6.568914e-02
2.874000e+08, 8.623411e-02, 7.655403e-01, 2.749846e+00, -7.053958e-01, 2.468227e-10, 3.909863e-10, 3.410053e+01, 6.624520e-02
2.912000e+08, 8.570926e-02, 7.657886e-01, 2.743953e+00, -7.147310e-01, 2.433577e-10, 3.914171e-10, 3.414722e+01, 6.677251e-02
2.950000e+08, 8.518269e-02, 7.660340e-01, 2.738142e+00, -7.240765e-01, 2.399337e-10, 3.918351e-10, 3.419392e+01, 6.727160e-02
2.988000e+08, 8.465448e-02, 7.662765e-01, 2.732414e+00, -7.334320e-01, 2.365489e-10, 3.922406e-10, 3.424060e+01, 6.774300e-02
3.026000e+08, 8.412471e-02, 7.665158e-01, 2.726766e+00, -7.427972e-01, 2.332017e-10, 3.926339e-10, 3.428725e+01, 6.818722e-02
3.064000e+08, 8.359345e-02, 7.667521e-01, 2.721198e+00, -7.521718e-01, 2.298904e-10, 3.930152e-10, 3.433386e+01, 6.860477e-02
3.102000e+08, 8.306079e-02, 7.669851e-01, 2.715709e+00, -7.615554e-01, 2.266136e-10, 3.933847e-10, 3.438042e+01, 6.899615e-02
3.140000e+08, 8.252680e-02, 7.672148e-01, 2.710298e+00, -7.709479e-01, 2.233701e-10, 3.937425e-10, 3.442693e+01, 6.936185e-02
3.178000e+08, 8.199156e-02, 7.674411e-01, 2.704965e+00, -7.803490e-01, 2.201585e-10, 3.940889e-10, 3.447336e+01, 6.970236e-02
3.216000e+08, 8.145512e-02, 7.676640e-01, 2.699709e+00, -7.897583e-01, 2.169777e-10, 3.944241e-10, 3.451971e+01, 7.001814e-02
3.254000e+08, 8.091757e-02, 7.678834e-01, 2.694528e+00, -7.991756e-01, 2.138264e-10, 3.947482e-10, 3.456598e+01, 7.030968e-02
3.292000e+08, 8.037898e-02, 7.680991e-01, 2.689423e+00, -8.086006e-01, 2.107037e-10, 3.950614e-10, 3.461215e+01, 7.057743e-02
3.330000e+08, 7.983940e-02, 7.683113e-01, 2.684392e+00, -8.180332e-01, 2.076084e-10, 3.953639e-10, 3.465821e+01, 7.082184e-02
3.368000e+08, 7.929890e-02, 7.685197e-01, 2.679435e+00, -8.274729e-01, 2.045397e-10, 3.956559e-10, 3.470416e+01, 7.104338e-02
3.406000e+08, 7.875756e-02, 7.687245e-01, 2.674551e+00, -8.369196e-01, 2.014965e-10, 3.959376e-10, 3.474999e+01, 7.124247e-02
3.444000e+08, 7.821542e-02, 7.689254e-01, 2.669741e+00, -8.463731e-01, 1.984779e-10, 3.962090e-10, 3.479569e+01, 7.141955e-02
3.482000e+08, 7.767254e-02, 7.691225e-01, 2.665002e+00, -8.558330e-01, 1.954830e-10, 3.964704e-10, 3.484126e+01, 7.157505e-02
3.520000e+08, 7.712899e-02, 7.693158e-01, 2.660334e+00, -8.652992e-01, 1.925109e-10, 3.967220e-10, 3.488668e+01, 7.170939e-02
3.558000e+08, 7.658481e-02, 7.695051e-01, 2.655738e+00, -8.747713e-01, 1.895608e-10, 3.969638e-10, 3.493196e+01, 7.182298e-02
3.596000e+08, 7.604005e-02, 7.696905e-01, 2.651212e+00, -8.842493e-01, 1.866317e-10, 3.971961e-10, 3.497708e+01, 7.191623e-02
3.634000e+08, 7.549478e-02, 7.698720e-01, 2.646756e+00, -8.937328e-01, 1.837229e-10, 3.974190e-10, 3.502204e+01, 7.198952e-02
3.672000e+08, 7.494902e-02, 7.700495e-01, 2.642369e+00, -9.032216e-01, 1.808334e-10, 3.976327e-10, 3.506684e+01, 7.204326e-02
3.710000e+08, 7.440284e-02, 7.702230e-01, 2.638052e+00, -9.127155e-01, 1.779623e-10, 3.978373e-10, 3.511147e+01, 7.207782e-02
3.748000e+08, 7.385626e-02, 7.703925e-01, 2.633803e+00, -9.222143e-01, 1.751088e-10, 3.980330e-10, 3.515592e+01, 7.209359e-02
3.786000e+08, 7.330934e-02, 7.705580e-01, 2.629622e+00, -9.317178e-01, 1.722719e-10, 3.982200e-10, 3.520020e+01, 7.209092e-02
3.824000e+08, 7.276210e-02, 7.707195e-01, 2.625509e+00, -9.412258e-01, 1.694507e-10, 3.983983e-10, 3.524429e+01, 7.207018e-02
3.862000e+08, 7.221458e-02, 7.708769e-01, 2.621463e+00, -9.507380e-01, 1.666443e-10, 3.985682e-10, 3.528819e+01, 7.203172e-02
3.900000e+08, 7.166683e-02, 7.710303e-01, 2.617484e+00, -9.602542e-01, 1.638516e-10, 3.987298e-10, 3.533191e+01, 7.197589e-02
3.938000e+08, 7.111885e-02, 7.711797e-01, 2.613572e+00, -9.697743e-01, 1.610716e-10, 3.988833e-10, 3.537543e+01, 7.190301e-02
3.976000e+08, 7.057070e-02, 7.713251e-01, 2.609726e+00, -9.792981e-01, 1.583032e-10, 3.990288e-10, 3.541876e+01, 7.181343e-02
4.014000e+08, 7.002238e-02, 7.714664e-01, 2.605946e+00, -9.888254e-01, 1.555454e-10, 3.991665e-10, 3.546188e+01, 7.170745e-02
4.052000e+08, 6.947393e-02, 7.716037e-01, 2.602233e+00, -9.983559e-01, 1.527969e-10, 3.992965e-10, 3.550481e+01, 7.158540e-02
4.090000e+08, 6.892537e-02, 7.717370e-01, 2.598584e+00, -1.007890e+00, 1.500565e-10, 3.994191e-10, 3.554753e+01, 7.144758e-02
4.128000e+08, 6.837671e-02, 7.718663e-01, 2.595002e+00, -1.017426e+00, 1.473231e-10, 3.995342e-10, 3.559005e+01, 7.129427e-02
4.166000e+08, 6.782797e-02, 7.719917e-01, 2.591484e+00, -1.026965e+00, 1.445951e-10, 3.996422e-10, 3.563236e+01, 7.112578e-02
4.204000e+08, 6.727917e-02, 7.721131e-01, 2.588032e+00, -1.036507e+00, 1.418713e-10, 3.997431e-10, 3.567446e+01, 7.094238e-02
4.242000e+08, 6.673033e-02, 7.722307e-01, 2.584644e+00, -1.046052e+00, 1.391502e-10, 3.998371e-10, 3.571635e+01, 7.074434e-02
4.280000e+08, 6.618144e-02, 7.723443e-01, 2.581322e+00, -1.055598e+00, 1.364302e-10, 3.999244e-10, 3.575804e+01, 7.053193e-02
4.318000e+08, 6.563252e-02, 7.724540e-01, 2.578065e+00, -1.065147e+00, 1.337096e-10, 4.000052e-10, 3.579951e+01, 7.030540e-02
4.356000e+08, 6.508358e-02, 7.725600e-01, 2.574872e+00, -1.074697e+00, 1.309869e-10, 4.000795e-10, 3.584077e+01, 7.006500e-02
4.394000e+08, 6.453462e-02, 7.726621e-01, 2.571745e+00, -1.084250e+00, 1.282601e-10, 4.001475e-10, 3.588181e+01, 6.981097e-02
4.432000e+08, 6.398564e-02, 7.727604e-01, 2.568682e+00, -1.093804e+00, 1.255274e-10, 4.002094e-10, 3.592265e+01, 6.954353e-02
4.470000e+08, 6.343665e-02, 7.728551e-01, 2.565685e+00, -1.103359e+00, 1.227868e-10, 4.002654e-10, 3.596327e+01, 6.926291e-02
4.508000e+08, 6.288765e-02, 7.729460e-01, 2.562754e+00, -1.112916e+00, 1.200362e-10, 4.003156e-10, 3.600367e+01, 6.896933e-02
4.546000e+08, 6.233863e-02, 7.730333e-01, 2.559888e+00, -1.122474e+00, 1.172734e-10, 4.003601e-10, 3.604386e+01, 6.866299e-02
4.584000e+08, 6.178958e-02, 7.731169e-01, 2.557088e+00, -1.132033e+00, 1.144960e-10, 4.003991e-10, 3.608384e+01, 6.834408e-02
4.622000e+08, 6.124052e-02, 7.731970e-01, 2.554354e+00, -1.141593e+00, 1.117016e-10, 4.004328e-10, 3.612361e+01, 6.801280e-02
4.660000e+08, 6.069141e-02, 7.732736e-01, 2.551687e+00, -1.151154e+00, 1.088876e-10, 4.004612e-10, 3.616316e+01, 6.766934e-02
4.698000e+08, 6.014227e-02, 7.733468e-01, 2.549087e+00, -1.160715e+00, 1.060513e-10, 4.004847e-10, 3.620250e+01, 6.731386e-02
4.736000e+08, 5.959308e-02, 7.734164e-01, 2.546555e+00, -1.170277e+00, 1.031899e-10, 4.005032e-10, 3.624163e+01, 6.694652e-02
4.774000e+08, 5.904383e-02, 7.734828e-01, 2.544091e+00, -1.179840e+00, 1.003003e-10, 4.005170e-10, 3.628055e+01, 6.656750e-02
4.812000e+08, 5.849450e-02, 7.735458e-01, 2.541696e+00, -1.189402e+00, 9.737935e-11, 4.005261e-10, 3.631925e+01, 6.617694e-02
4.850000e+08, 5.794509e-02, 7.736055e-01, 2.539371e+00, -1.198965e+00, 9.442371e-11, 4.005309e-10, 3.635775e+01, 6.577498e-02
4.888000e+08, 5.739558e-02, 7.736620e-01, 2.537117e+00, -1.208529e+00, 9.142987e-11, 4.005313e-10, 3.639603e+01, 6.536175e-02
4.926000e+08, 5.684597e-02, 7.737153e-01, 2.534934e+00, -1.218092e+00, 8.839413e-11, 4.005276e-10, 3.643411e+01, 6.493740e-02
4.964000e+08, 5.629622e-02, 7.737655e-01, 2.532823e+00, -1.227655e+00, 8.531258e-11, 4.005198e-10, 3.647198e+01, 6.450203e-02
5.002000e+08, 5.574633e-02, 7.738127e-01, 2.530786e+00, -1.237218e+00, 8.218113e-11, 4.005082e-10, 3.650964e+01, 6.405576e-02
5.040000e+08, 5.519629e-02, 7.738569e-01, 2.528824e+00, -1.246780e+00, 7.899544e-11, 4.004928e-10, 3.654709e+01, 6.359870e-02
5.078000e+08, 5.464606e-02, 7.738981e-01, 2.526938e+00, -1.256342e+00, 7.575095e-11, 4.004739e-10, 3.658434e+01, 6.313095e-02
5.116000e+08, 5.409565e-02, 7.739365e-01, 2.525129e+00, -1.265904e+00, 7.244287e-11, 4.004514e-10, 3.662138e+01, 6.265260e-02
5.154000e+08, 5.354503e-02, 7.739720e-01, 2.523400e+00, -1.275465e+00, 6.906615e-11, 4.004257e-10, 3.665822e+01, 6.216374e-02
5.192000e+08, 5.299419e-02, 7.740048e-01, 2.521751e+00, -1.285026e+00, 6.561543e-11, 4.003968e-10, 3.669485e+01, 6.166445e-02
5.230000e+08, 5.244311e-02, 7.740349e-01, 2.520184e+00, -1.294586e+00, 6.208512e-11, 4.003649e-10, 3.673128e+01, 6.115480e-02
5.268000e+08, 5.189177e-02, 7.740623e-01, 2.518702e+00, -1.304145e+00, 5.846927e-11, 4.003300e-10, 3.676750e+01, 6.063487e-02
5.306000e+08, 5.134015e-02, 7.740872e-01, 2.517306e+00, -1.313703e+00, 5.476163e-11, 4.002923e-10, 3.680353e+01, 6.010470e-02
5.344000e+08, 5.078825e-02, 7.741095e-01, 2.515998e+00, -1.323261e+00, 5.095561e-11, 4.002520e-10, 3.683935e+01, 5.956437e-02
5.382000e+08, 5.023605e-02, 7.741294e-01, 2.514782e+00, -1.332817e+00, 4.704423e-11, 4.002092e-10, 3.687496e+01, 5.901391e-02
5.420000e+08, 4.968353e-02, 7.741469e-01, 2.513658e+00, -1.342373e+00, 4.302015e-11, 4.001639e-10, 3.691037e+01, 5.845338e-02
5.458000e+08, 4.913069e-02, 7.741620e-01, 2.512631e+00, -1.351927e+00, 3.887560e-11, 4.001164e-10, 3.694559e+01, 5.788282e-02
5.496000e+08, 4.857750e-02, 7.741749e-01, 2.511703e+00, -1.361480e+00, 3.460237e-11, 4.000667e-10, 3.698059e+01, 5.730225e-02
5.534000e+08, 4.802396e-02, 7.741856e-01, 2.510877e+00, -1.371032e+00, 3.019178e-11, 4.000150e-10, 3.701540e+01, 5.671172e-02
5.572000e+08, 4.747006e-02, 7.741941e-01, 2.510156e+00, -1.380583e+00, 2.563465e-11, 3.999614e-10, 3.705000e+01, 5.611124e-02
5.610000e+08, 4.691580e-02, 7.742005e-01, 2.509544e+00, -1.390133e+00, 2.092127e-11, 3.999059e-10, 3.708440e+01, 5.550084e-02
5.648000e+08, 4.636117e-02, 7.742049e-01, 2.509044e+00, -1.399681e+00, 1.604136e-11, 3.998488e-10, 3.711860e+01, 5.488053e-02
5.686000e+08, 4.580616e-02, 7.742073e-01, 2.508661e+00, -1.409228e+00, 1.098404e-11, 3.997901e-10, 3.715259e+01, 5.425032e-02
5.724000e+08, 4.525078e-02, 7.742078e-01, 2.508399e+00, -1.418773e+00, 5.737779e-12, 3.997300e-10, 3.718637e+01, 5.361023e-02
5.762000e+08, 4.469502e-02, 7.742065e-01, 2.508262e+00, -1.428317e+00, 2.903418e-13, 3.996684e-10, 3.721995e+01, 5.296026e-02
5.800000e+08, 4.413890e-02, 7.742034e-01, 2.508255e+00, -1.437860e+00, -5.371234e-12, 3.996056e-10, 3.725332e+01, 5.230042e-02
5.838000e+08, 4.358242e-02, 7.741985e-01, 2.508384e+00, -1.447401e+00, -1.126071e-11, 3.995417e-10, 3.728648e+01, 5.163069e-02
5.876000e+08, 4.302558e-02, 7.741920e-01, 2.508652e+00, -1.456940e+00, -1.739268e-11, 3.994767e-10, 3.731944e+01, 5.095108e-02
5.914000e+08, 4.246841e-02, 7.741839e-01, 2.509068e+00, -1.466478e+00, -2.378265e-11, 3.994108e-10, 3.735218e+01, 5.026158e-02
5.952000e+08, 4.191093e-02, 7.741742e-01, 2.509636e+00, -1.476014e+00, -3.044712e-11, 3.993440e-10, 3.738470e+01, 4.956217e-02
5.990000e+08, 4.135314e-02, 7.741630e-01, 2.510362e+00, -1.485549e+00, -3.740359e-11, 3.992764e-10, 3.741701e+01, 4.885286e-02
6.028000e+08, 4.079509e-02, 7.741504e-01, 2.511256e+00, -1.495082e+00, -4.467070e-11, 3.992082e-10, 3.744911e+01, 4.813362e-02
6.066000e+08, 4.023681e-02, 7.741364e-01, 2.512322e+00, -1.504614e+00, -5.226826e-11, 3.991394e-10, 3.748098e+01, 4.740443e-02
6.104000e+08, 3.967832e-02, 7.741211e-01, 2.513570e+00, -1.514144e+00, -6.021737e-11, 3.990701e-10, 3.751263e+01, 4.666528e-02
6.142000e+08, 3.911968e-02, 7.741045e-01, 2.515008e+00, -1.523672e+00, -6.854047e-11, 3.990004e-10, 3.754405e+01, 4.591616e-02
6.180000e+08, 3.856093e-02, 7.740867e-01, 2.516644e+00, -1.533199e+00, -7.726149e-11, 3.989304e-10, 3.757525e+01, 4.515703e-02
6.218000e+08, 3.800212e-02, 7.740677e-01, 2.518489e+00, -1.542723e+00, -8.640591e-11, 3.988601e-10, 3.760622e+01, 4.438788e-02
6.256000e+08, 3.744332e-02, 7.740477e-01, 2.520552e+00, -1.552247e+00, -9.600086e-11, 3.987897e-10, 3.763695e+01, 4.360869e-02
6.294000e+08, 3.688460e-02, 7.740265e-01, 2.522844e+00, -1.561768e+00, -1.060753e-10, 3.987192e-10, 3.766744e+01, 4.281943e-02
6.332000e+08, 3.632603e-02, 7.740044e-01, 2.525377e+00, -1.571288e+00, -1.166600e-10, 3.986486e-10, 3.769770e+01, 4.202008e-02
6.370000e+08, 3.576771e-02, 7.739813e-01, 2.528162e+00, -1.580806e+00, -1.277878e-10, 3.985781e-10, 3.772770e+01, 4.121062e-02
6.408000e+08, 3.520972e-02, 7.739573e-01, 2.531213e+00, -1.590323e+00, -1.394938e-10, 3.985078e-10, 3.775746e+01, 4.039102e-02
6.446000e+08, 3.465217e-02, 7.739324e-01, 2.534544e+00, -1.599838e+00, -1.518152e-10, 3.984376e-10, 3.778697e+01, 3.956126e-02
6.484000e+08, 3.409518e-02, 7.739067e-01, 2.538169e+00, -1.609351e+00, -1.647917e-10, 3.983677e-10, 3.781621e+01, 3.872132e-02
6.522000e+08, 3.353887e-02, 7.738803e-01, 2.542103e+00, -1.618862e+00, -1.784657e-10, 3.982981e-10, 3.784520e+01, 3.787118e-02
6.560000e+08, 3.298340e-02, 7.738531e-01, 2.546364e+00, -1.628372e+00, -1.928821e-10, 3.982288e-10, 3.787392e+01, 3.701082e-02
6.598000e+08, 3.242890e-02, 7.738252e-01, 2.550970e+00, -1.637880e+00, -2.080887e-10, 3.981600e-10, 3.790237e+01, 3.614021e-02
6.636000e+08, 3.187555e-02, 7.737968e-01, 2.555938e+00, -1.647387e+00, -2.241362e-10, 3.980917e-10, 3.793053e+01, 3.525934e-02
6.674000e+08, 3.132354e-02, 7.737677e-01, 2.561289e+00, -1.656892e+00, -2.410784e-10, 3.980239e-10, 3.795842e+01, 3.436819e-02
6.712000e+08, 3.077307e-02, 7.737381e-01, 2.567045e+00, -1.666395e+00, -2.589723e-10, 3.979567e-10, 3.798602e+01, 3.346674e-02
6.750000e+08, 3.022435e-02, 7.737079e-01, 2.573229e+00, -1.675896e+00, -2.778779e-10, 3.978902e-10, 3.801333e+01, 3.255500e-02
6.788000e+08, 2.967763e-02, 7.736773e-01, 2.579863e+00, -1.685397e+00, -2.978587e-10, 3.978243e-10, 3.804033e+01, 3.163293e-02
6.826000e+08, 2.913317e-02, 7.736463e-01, 2.586975e+00, -1.694895e+00, -3.189811e-10, 3.977591e-10, 3.806703e+01, 3.070054e-02
6.864000e+08, 2.859126e-02, 7.736149e-01, 2.594591e+00, -1.704392e+00, -3.413146e-10, 3.976947e-10, 3.809342e+01, 2.975782e-02
6.902000e+08, 2.805221e-02, 7.735831e-01, 2.602740e+00, -1.713887e+00, -3.649318e-10, 3.976312e-10, 3.811949e+01, 2.880476e-02
6.940000e+08, 2.751636e-02, 7.735510e-01, 2.611453e+00, -1.723381e+00, -3.899076e-10, 3.975684e-10, 3.814524e+01, 2.784137e-02
6.978000e+08, 2.698407e-02, 7.735186e-01, 2.620763e+00, -1.732874e+00, -4.163191e-10, 3.975066e-10, 3.817066e+01, 2.686765e-02
7.016000e+08, 2.645575e-02, 7.734860e-01, 2.630703e+00, -1.742365e+00, -4.442449e-10, 3.974456e-10, 3.819573e+01, 2.588360e-02
7.054000e+08, 2.593183e-02, 7.734531e-01, 2.641310e+00, -1.751854e+00, -4.737641e-10, 3.973856e-10, 3.822046e+01, 2.488923e-02
7.092000e+08, 2.541278e-02, 7.734201e-01, 2.652621e+00, -1.761342e+00, -5.049555e-10, 3.973266e-10, 3.824484e+01, 2.388456e-02
7.130000e+08, 2.489913e-02, 7.733868e-01, 2.664678e+00, -1.770829e+00, -5.378956e-10, 3.972686e-10, 3.826886e+01, 2.286961e-02
7.168000e+08, 2.439142e-02, 7.733535e-01, 2.677521e+00, -1.780314e+00, -5.726574e-10, 3.972116e-10, 3.829251e+01, 2.184438e-02
7.206000e+08, 2.389025e-02, 7.733200e-01, 2.691193e+00, -1.789798e+00, -6.093078e-10, 3.971556e-10, 3.831579e+01, 2.080892e-02
7.244000e+08, 2.339629e-02, 7.732865e-01, 2.705741e+00, -1.799280e+00, -6.479044e-10, 3.971007e-10, 3.833868e+01, 1.976324e-02
7.282000e+08, 2.291023e-02, 7.732529e-01, 2.721211e+00, -1.808761e+00, -6.884929e-10, 3.970469e-10, 3.836118e+01, 1.870738e-02
7.320000e+08, 2.243284e-02, 7.732193e-01, 2.737649e+00, -1.818241e+00, -7.311022e-10, 3.969942e-10, 3.838328e+01, 1.764138e-02
7.358000e+08, 2.196493e-02, 7.731857e-01, 2.755105e+00, -1.827720e+00, -7.757399e-10, 3.969426e-10, 3.840498e+01, 1.656528e-02
7.396000e+08, 2.150740e-02, 7.731521e-01, 2.773627e+00, -1.837197e+00, -8.223865e-10, 3.968922e-10, 3.842626e+01, 1.547913e-02
7.434000e+08, 2.106119e-02, 7.731186e-01, 2.793262e+00, -1.846674e+00, -8.709889e-10, 3.968429e-10, 3.844711e+01, 1.438298e-02
7.472000e+08, 2.062731e-02, 7.730851e-01, 2.814058e+00, -1.856149e+00, -9.214534e-10, 3.967948e-10, 3.846754e+01, 1.327688e-02
7.510000e+08, 2.020685e-02, 7.730517e-01, 2.836059e+00, -1.865623e+00, -9.736375e-10, 3.967478e-10, 3.848752e+01, 1.216091e-02
7.548000e+08, 1.980096e-02, 7.730184e-01, 2.859305e+00, -1.875095e+00, -1.027342e-09, 3.967020e-10, 3.850706e+01, 1.103512e-02
7.586000e+08, 1.941086e-02, 7.729852e-01, 2.883834e+00, -1.884567e+00, -1.082302e-09, 3.966574e-10, 3.852613e+01, 9.899586e-03
7.624000e+08, 1.903781e-02, 7.729522e-01, 2.909676e+00, -1.894038e+00, -1.138179e-09, 3.966139e-10, 3.854474e+01, 8.754394e-03
7.662000e+08, 1.868318e-02, 7.729193e-01, 2.936851e+00, -1.903507e+00, -1.194556e-09, 3.965717e-10, 3.856287e+01, 7.599624e-03
7.700000e+08, 1.834833e-02, 7.728866e-01, 2.965372e+00, -1.912976e+00, -1.250931e-09, 3.965307e-10, 3.858052e+01, 6.435366e-03
7.738000e+08, 1.803472e-02, 7.728541e-01, 2.995240e+00, -1.922444e+00, -1.306714e-09, 3.964908e-10, 3.859768e+01, 5.261714e-03
7.776000e+08, 1.774379e-02, 7.728217e-01, 3.026439e+00, -1.931910e+00, -1.361234e-09, 3.964521e-10, 3.861433e+01, 4.078770e-03
7.814000e+08, 1.747703e-02, 7.727896e-01, 3.058940e+00, -1.941376e+00, -1.413741e-09, 3.964146e-10, 3.863047e+01, 2.886641e-03
7.852000e+08, 1.723589e-02, 7.727577e-01, 3.092694e+00, -1.950841e+00, -1.463423e-09, 3.963783e-10, 3.864609e+01, 1.685440e-03
7.890000e+08, 1.702182e-02, 7.727260e-01, 3.127635e+00, -1.960305e+00, -1.509428e-09, 3.963432e-10, 3.866117e+01, 4.752856e-04
7.928000e+08, 1.683619e-02, 7.726946e-01, -3.119511e+00, -1.969768e+00, -1.550888e-09, 3.963093e-10, 3.867572e+01, -7.436965e-04
