Frequency [Hz], |S00| [-], |S10| [-], Arg(S00) [-], Arg(S10) [-], Delay 0>0 [s], Delay 0>1 [s], |Z0| [Ohm] , Arg(Z0) [-]
2.000000e+08, 6.627932e-03, 7.918602e-01, -4.210091e-01, -2.292213e-01, -2.472478e-09, 1.632417e-10, 5.060859e+01, -5.417613e-03
2.038000e+08, 6.641371e-03, 7.919470e-01, -3.619760e-01, -2.331188e-01, -2.388676e-09, 1.637306e-10, 5.062498e+01, -4.703895e-03
2.076000e+08, 6.682517e-03, 7.920346e-01, -3.049437e-01, -2.370281e-01, -2.288401e-09, 1.641987e-10, 5.064151e+01, -4.012868e-03
2.114000e+08, 6.749025e-03, 7.921229e-01, -2.503056e-01, -2.409485e-01, -2.175878e-09, 1.646477e-10, 5.065817e+01, -3.343607e-03
2.152000e+08, 6.838485e-03, 7.922120e-01, -1.983541e-01, -2.448797e-01, -2.055245e-09, 1.650786e-10, 5.067496e+01, -2.695248e-03
2.190000e+08, 6.948495e-03, 7.923017e-01, -1.492828e-01, -2.488211e-01, -1.930275e-09, 1.654927e-10, 5.069187e+01, -2.066982e-03
2.228000e+08, 7.076721e-03, 7.923920e-01, -1.031954e-01, -2.527724e-01, -1.804197e-09, 1.658911e-10, 5.070890e+01, -1.458051e-03
2.266000e+08, 7.220945e-03, 7.924829e-01, -6.011819e-02, -2.567332e-01, -1.679627e-09, 1.662748e-10, 5.072602e+01, -8.677424e-04
2.304000e+08, 7.379094e-03, 7.925742e-01, -2.001524e-02, -2.607032e-01, -1.558562e-09, 1.666446e-10, 5.074324e+01, -2.953850e-04
2.342000e+08, 7.549263e-03, 7.926660e-01, 1.719716e-02, -2.646821e-01, -1.442439e-09, 1.670013e-10, 5.076056e+01, 2.596537e-04
2.380000e+08, 7.729723e-03, 7.927582e-01, 5.163698e-02, -2.686694e-01, -1.332207e-09, 1.673457e-10, 5.077795e+01, 7.979718e-04
2.418000e+08, 7.918916e-03, 7.928508e-01, 8.344489e-02, -2.726650e-01, -1.228425e-09, 1.676785e-10, 5.079541e+01, 1.320135e-03
2.456000e+08, 8.115454e-03, 7.929437e-01, 1.127749e-01, -2.766685e-01, -1.131343e-09, 1.680003e-10, 5.081295e+01, 1.826680e-03
2.494000e+08, 8.318108e-03, 7.930368e-01, 1.397870e-01, -2.806797e-01, -1.040980e-09, 1.683117e-10, 5.083054e+01, 2.318116e-03
2.532000e+08, 8.525793e-03, 7.931302e-01, 1.646415e-01, -2.846983e-01, -9.571930e-10, 1.686133e-10, 5.084818e+01, 2.794929e-03
2.570000e+08, 8.737557e-03, 7.932237e-01, 1.874955e-01, -2.887241e-01, -8.797267e-10, 1.689055e-10, 5.086587e+01, 3.257579e-03
2.608000e+08, 8.952565e-03, 7.933174e-01, 2.085000e-01, -2.927569e-01, -8.082548e-10, 1.691888e-10, 5.088360e+01, 3.706510e-03
2.646000e+08, 9.170090e-03, 7.934111e-01, 2.277980e-01, -2.967965e-01, -7.424112e-10, 1.694637e-10, 5.090137e+01, 4.142141e-03
2.684000e+08, 9.389498e-03, 7.935049e-01, 2.455238e-01, -3.008426e-01, -6.818122e-10, 1.697305e-10, 5.091916e+01, 4.564878e-03
2.722000e+08, 9.610235e-03, 7.935987e-01, 2.618029e-01, -3.048951e-01, -6.260727e-10, 1.699895e-10, 5.093697e+01, 4.975107e-03
2.760000e+08, 9.831823e-03, 7.936925e-01, 2.767510e-01, -3.089538e-01, -5.748162e-10, 1.702412e-10, 5.095479e+01, 5.373201e-03
2.798000e+08, 1.005384e-02, 7.937862e-01, 2.904754e-01, -3.130185e-01, -5.276829e-10, 1.704859e-10, 5.097263e+01, 5.759517e-03
2.836000e+08, 1.027594e-02, 7.938798e-01, 3.030744e-01, -3.170891e-01, -4.843328e-10, 1.707238e-10, 5.099046e+01, 6.134400e-03
2.874000e+08, 1.049779e-02, 7.939732e-01, 3.146384e-01, -3.211653e-01, -4.444490e-10, 1.709552e-10, 5.100830e+01, 6.498183e-03
2.912000e+08, 1.071913e-02, 7.940665e-01, 3.252501e-01, -3.252470e-01, -4.077377e-10, 1.711803e-10, 5.102612e+01, 6.851186e-03
2.950000e+08, 1.093972e-02, 7.941596e-01, 3.349853e-01, -3.293341e-01, -3.739284e-10, 1.713995e-10, 5.104394e+01, 7.193720e-03
2.988000e+08, 1.115937e-02, 7.942524e-01, 3.439133e-01, -3.334265e-01, -3.427732e-10, 1.716129e-10, 5.106173e+01, 7.526086e-03
3.026000e+08, 1.137788e-02, 7.943449e-01, 3.520973e-01, -3.375239e-01, -3.140458e-10, 1.718208e-10, 5.107950e+01, 7.848574e-03
3.064000e+08, 1.159513e-02, 7.944371e-01, 3.595955e-01, -3.416264e-01, -2.875398e-10, 1.720233e-10, 5.109724e+01, 8.161468e-03
3.102000e+08, 1.181097e-02, 7.945290e-01, 3.664609e-01, -3.457336e-01, -2.630673e-10, 1.722206e-10, 5.111495e+01, 8.465041e-03
3.140000e+08, 1.202530e-02, 7.946205e-01, 3.727419e-01, -3.498456e-01, -2.404577e-10, 1.724129e-10, 5.113262e+01, 8.759561e-03
3.178000e+08, 1.223803e-02, 7.947116e-01, 3.784831e-01, -3.539621e-01, -2.195561e-10, 1.726004e-10, 5.115025e+01, 9.045287e-03
3.216000e+08, 1.244907e-02, 7.948022e-01, 3.837252e-01, -3.580831e-01, -2.002215e-10, 1.727831e-10, 5.116783e+01, 9.322472e-03
3.254000e+08, 1.265836e-02, 7.948924e-01, 3.885057e-01, -3.622085e-01, -1.823264e-10, 1.729613e-10, 5.118536e+01, 9.591363e-03
3.292000e+08, 1.286584e-02, 7.949821e-01, 3.928590e-01, -3.663382e-01, -1.657545e-10, 1.731351e-10, 5.120284e+01, 9.852199e-03
3.330000e+08, 1.307147e-02, 7.950712e-01, 3.968166e-01, -3.704720e-01, -1.504006e-10, 1.733047e-10, 5.122026e+01, 1.010522e-02
3.368000e+08, 1.327521e-02, 7.951599e-01, 4.004075e-01, -3.746098e-01, -1.361687e-10, 1.734700e-10, 5.123761e+01, 1.035064e-02
3.406000e+08, 1.347704e-02, 7.952479e-01, 4.036587e-01, -3.787516e-01, -1.229716e-10, 1.736313e-10, 5.125491e+01, 1.058870e-02
3.444000e+08, 1.367693e-02, 7.953354e-01, 4.065948e-01, -3.828972e-01, -1.107301e-10, 1.737887e-10, 5.127213e+01, 1.081962e-02
3.482000e+08, 1.387486e-02, 7.954222e-01, 4.092386e-01, -3.870466e-01, -9.937170e-11, 1.739422e-10, 5.128929e+01, 1.104360e-02
3.520000e+08, 1.407083e-02, 7.955084e-01, 4.116112e-01, -3.911997e-01, -8.883051e-11, 1.740920e-10, 5.130637e+01, 1.126085e-02
3.558000e+08, 1.426483e-02, 7.955940e-01, 4.137321e-01, -3.953563e-01, -7.904627e-11, 1.742381e-10, 5.132337e+01, 1.147159e-02
3.596000e+08, 1.445686e-02, 7.956788e-01, 4.156195e-01, -3.995164e-01, -6.996393e-11, 1.743807e-10, 5.134029e+01, 1.167602e-02
3.634000e+08, 1.464692e-02, 7.957630e-01, 4.172899e-01, -4.036800e-01, -6.153311e-11, 1.745198e-10, 5.135713e+01, 1.187433e-02
3.672000e+08, 1.483502e-02, 7.958464e-01, 4.187591e-01, -4.078468e-01, -5.370767e-11, 1.746555e-10, 5.137389e+01, 1.206671e-02
3.710000e+08, 1.502116e-02, 7.959291e-01, 4.200414e-01, -4.120169e-01, -4.644530e-11, 1.747880e-10, 5.139056e+01, 1.225336e-02
3.748000e+08, 1.520536e-02, 7.960110e-01, 4.211504e-01, -4.161902e-01, -3.970714e-11, 1.749172e-10, 5.140714e+01, 1.243446e-02
3.786000e+08, 1.538764e-02, 7.960921e-01, 4.220984e-01, -4.203665e-01, -3.345748e-11, 1.750432e-10, 5.142364e+01, 1.261019e-02
3.824000e+08, 1.556800e-02, 7.961725e-01, 4.228972e-01, -4.245459e-01, -2.766344e-11, 1.751661e-10, 5.144004e+01, 1.278074e-02
3.862000e+08, 1.574647e-02, 7.962520e-01, 4.235577e-01, -4.287282e-01, -2.229476e-11, 1.752860e-10, 5.145634e+01, 1.294628e-02
3.900000e+08, 1.592307e-02, 7.963307e-01, 4.240900e-01, -4.329133e-01, -1.732350e-11, 1.754029e-10, 5.147256e+01, 1.310699e-02
3.938000e+08, 1.609781e-02, 7.964086e-01, 4.245037e-01, -4.371012e-01, -1.272385e-11, 1.755170e-10, 5.148867e+01, 1.326303e-02
3.976000e+08, 1.627074e-02, 7.964856e-01, 4.248075e-01, -4.412919e-01, -8.471970e-12, 1.756282e-10, 5.150470e+01, 1.341456e-02
4.014000e+08, 1.644186e-02, 7.965618e-01, 4.250097e-01, -4.454852e-01, -4.545774e-12, 1.757366e-10, 5.152062e+01, 1.356177e-02
4.052000e+08, 1.661120e-02, 7.966370e-01, 4.251183e-01, -4.496811e-01, -9.247945e-13, 1.758423e-10, 5.153644e+01, 1.370479e-02
4.090000e+08, 1.677880e-02, 7.967114e-01, 4.251404e-01, -4.538795e-01, 2.409960e-12, 1.759453e-10, 5.155217e+01, 1.384380e-02
4.128000e+08, 1.694469e-02, 7.967849e-01, 4.250828e-01, -4.580804e-01, 5.476131e-12, 1.760457e-10, 5.156779e+01, 1.397895e-02
4.166000e+08, 1.710888e-02, 7.968575e-01, 4.249521e-01, -4.622837e-01, 8.290129e-12, 1.761435e-10, 5.158332e+01, 1.411039e-02
4.204000e+08, 1.727141e-02, 7.969291e-01, 4.247541e-01, -4.664893e-01, 1.086723e-11, 1.762388e-10, 5.159875e+01, 1.423827e-02
4.242000e+08, 1.743232e-02, 7.969998e-01, 4.244947e-01, -4.706972e-01, 1.322169e-11, 1.763316e-10, 5.161407e+01, 1.436274e-02
4.280000e+08, 1.759163e-02, 7.970696e-01, 4.241790e-01, -4.749073e-01, 1.536680e-11, 1.764220e-10, 5.162930e+01, 1.448393e-02
4.318000e+08, 1.774937e-02, 7.971384e-01, 4.238121e-01, -4.791196e-01, 1.731498e-11, 1.765101e-10, 5.164442e+01, 1.460201e-02
4.356000e+08, 1.790559e-02, 7.972062e-01, 4.233987e-01, -4.833340e-01, 1.907787e-11, 1.765958e-10, 5.165945e+01, 1.471709e-02
4.394000e+08, 1.806031e-02, 7.972731e-01, 4.229432e-01, -4.875504e-01, 2.066633e-11, 1.766792e-10, 5.167438e+01, 1.482932e-02
4.432000e+08, 1.821357e-02, 7.973391e-01, 4.224497e-01, -4.917688e-01, 2.209059e-11, 1.767603e-10, 5.168920e+01, 1.493883e-02
4.470000e+08, 1.836541e-02, 7.974040e-01, 4.219223e-01, -4.959892e-01, 2.336023e-11, 1.768393e-10, 5.170394e+01, 1.504576e-02
4.508000e+08, 1.851585e-02, 7.974680e-01, 4.213645e-01, -5.002114e-01, 2.448425e-11, 1.769161e-10, 5.171857e+01, 1.515022e-02
4.546000e+08, 1.866494e-02, 7.975309e-01, 4.207799e-01, -5.044355e-01, 2.547113e-11, 1.769907e-10, 5.173311e+01, 1.525236e-02
4.584000e+08, 1.881271e-02, 7.975929e-01, 4.201718e-01, -5.086613e-01, 2.632884e-11, 1.770633e-10, 5.174755e+01, 1.535229e-02
4.622000e+08, 1.895920e-02, 7.976539e-01, 4.195432e-01, -5.128889e-01, 2.706492e-11, 1.771338e-10, 5.176190e+01, 1.545013e-02
4.660000e+08, 1.910444e-02, 7.977139e-01, 4.188970e-01, -5.171182e-01, 2.768648e-11, 1.772024e-10, 5.177615e+01, 1.554600e-02
4.698000e+08, 1.924848e-02, 7.977729e-01, 4.182359e-01, -5.213491e-01, 2.820022e-11, 1.772689e-10, 5.179032e+01, 1.564002e-02
4.736000e+08, 1.939134e-02, 7.978309e-01, 4.175626e-01, -5.255816e-01, 2.861251e-11, 1.773335e-10, 5.180440e+01, 1.573230e-02
4.774000e+08, 1.953307e-02, 7.978879e-01, 4.168795e-01, -5.298156e-01, 2.892936e-11, 1.773963e-10, 5.181838e+01, 1.582296e-02
4.812000e+08, 1.967371e-02, 7.979439e-01, 4.161887e-01, -5.340511e-01, 2.915648e-11, 1.774571e-10, 5.183228e+01, 1.591209e-02
4.850000e+08, 1.981330e-02, 7.979989e-01, 4.154926e-01, -5.382881e-01, 2.929929e-11, 1.775162e-10, 5.184610e+01, 1.599982e-02
4.888000e+08, 1.995187e-02, 7.980529e-01, 4.147930e-01, -5.425265e-01, 2.936293e-11, 1.775734e-10, 5.185983e+01, 1.608624e-02
4.926000e+08, 2.008945e-02, 7.981059e-01, 4.140920e-01, -5.467663e-01, 2.935232e-11, 1.776289e-10, 5.187349e+01, 1.617146e-02
4.964000e+08, 2.022611e-02, 7.981579e-01, 4.133911e-01, -5.510074e-01, 2.927210e-11, 1.776827e-10, 5.188706e+01, 1.625556e-02
5.002000e+08, 2.036186e-02, 7.982088e-01, 4.126922e-01, -5.552497e-01, 2.912672e-11, 1.777347e-10, 5.190056e+01, 1.633866e-02
5.040000e+08, 2.049675e-02, 7.982588e-01, 4.119968e-01, -5.594933e-01, 2.892044e-11, 1.777851e-10, 5.191398e+01, 1.642085e-02
5.078000e+08, 2.063082e-02, 7.983077e-01, 4.113063e-01, -5.637382e-01, 2.865729e-11, 1.778339e-10, 5.192733e+01, 1.650222e-02
5.116000e+08, 2.076411e-02, 7.983557e-01, 4.106221e-01, -5.679841e-01, 2.834115e-11, 1.778811e-10, 5.194062e+01, 1.658285e-02
5.154000e+08, 2.089666e-02, 7.984027e-01, 4.099454e-01, -5.722312e-01, 2.797574e-11, 1.779267e-10, 5.195383e+01, 1.666285e-02
5.192000e+08, 2.102851e-02, 7.984487e-01, 4.092774e-01, -5.764794e-01, 2.756459e-11, 1.779708e-10, 5.196698e+01, 1.674228e-02
5.230000e+08, 2.115969e-02, 7.984936e-01, 4.086193e-01, -5.807287e-01, 2.711111e-11, 1.780133e-10, 5.198007e+01, 1.682124e-02
5.268000e+08, 2.129026e-02, 7.985376e-01, 4.079720e-01, -5.849789e-01, 2.661858e-11, 1.780544e-10, 5.199310e+01, 1.689981e-02
5.306000e+08, 2.142025e-02, 7.985806e-01, 4.073365e-01, -5.892302e-01, 2.609011e-11, 1.780941e-10, 5.200607e+01, 1.697807e-02
5.344000e+08, 2.154969e-02, 7.986227e-01, 4.067135e-01, -5.934824e-01, 2.552873e-11, 1.781323e-10, 5.201899e+01, 1.705608e-02
5.382000e+08, 2.167864e-02, 7.986637e-01, 4.061040e-01, -5.977355e-01, 2.493733e-11, 1.781692e-10, 5.203186e+01, 1.713394e-02
5.420000e+08, 2.180712e-02, 7.987038e-01, 4.055086e-01, -6.019895e-01, 2.431870e-11, 1.782046e-10, 5.204468e+01, 1.721170e-02
5.458000e+08, 2.193519e-02, 7.987429e-01, 4.049280e-01, -6.062443e-01, 2.367552e-11, 1.782388e-10, 5.205746e+01, 1.728944e-02
5.496000e+08, 2.206287e-02, 7.987811e-01, 4.043627e-01, -6.105000e-01, 2.301038e-11, 1.782716e-10, 5.207019e+01, 1.736723e-02
5.534000e+08, 2.219022e-02, 7.988183e-01, 4.038133e-01, -6.147564e-01, 2.232577e-11, 1.783032e-10, 5.208289e+01, 1.744513e-02
5.572000e+08, 2.231727e-02, 7.988545e-01, 4.032802e-01, -6.190136e-01, 2.162410e-11, 1.783335e-10, 5.209555e+01, 1.752320e-02
5.610000e+08, 2.244406e-02, 7.988898e-01, 4.027639e-01, -6.232715e-01, 2.090768e-11, 1.783626e-10, 5.210818e+01, 1.760151e-02
5.648000e+08, 2.257063e-02, 7.989242e-01, 4.022647e-01, -6.275301e-01, 2.017876e-11, 1.783905e-10, 5.212078e+01, 1.768012e-02
5.686000e+08, 2.269702e-02, 7.989576e-01, 4.017829e-01, -6.317894e-01, 1.943950e-11, 1.784172e-10, 5.213335e+01, 1.775907e-02
5.724000e+08, 2.282328e-02, 7.989902e-01, 4.013188e-01, -6.360493e-01, 1.869198e-11, 1.784427e-10, 5.214590e+01, 1.783844e-02
5.762000e+08, 2.294943e-02, 7.990217e-01, 4.008725e-01, -6.403098e-01, 1.793822e-11, 1.784672e-10, 5.215844e+01, 1.791826e-02
5.800000e+08, 2.307553e-02, 7.990524e-01, 4.004442e-01, -6.445709e-01, 1.718018e-11, 1.784905e-10, 5.217095e+01, 1.799859e-02
5.838000e+08, 2.320161e-02, 7.990822e-01, 4.000340e-01, -6.488325e-01, 1.641974e-11, 1.785128e-10, 5.218346e+01, 1.807948e-02
5.876000e+08, 2.332771e-02, 7.991111e-01, 3.996420e-01, -6.530947e-01, 1.565871e-11, 1.785340e-10, 5.219596e+01, 1.816098e-02
5.914000e+08, 2.345387e-02, 7.991391e-01, 3.992681e-01, -6.573574e-01, 1.489886e-11, 1.785542e-10, 5.220845e+01, 1.824312e-02
5.952000e+08, 2.358013e-02, 7.991662e-01, 3.989124e-01, -6.616206e-01, 1.414188e-11, 1.785734e-10, 5.222094e+01, 1.832595e-02
5.990000e+08, 2.370653e-02, 7.991924e-01, 3.985747e-01, -6.658842e-01, 1.338942e-11, 1.785916e-10, 5.223344e+01, 1.840952e-02
6.028000e+08, 2.383310e-02, 7.992178e-01, 3.982550e-01, -6.701483e-01, 1.264307e-11, 1.786089e-10, 5.224594e+01, 1.849385e-02
6.066000e+08, 2.395990e-02, 7.992423e-01, 3.979532e-01, -6.744128e-01, 1.190434e-11, 1.786252e-10, 5.225845e+01, 1.857900e-02
6.104000e+08, 2.408694e-02, 7.992659e-01, 3.976690e-01, -6.786777e-01, 1.117473e-11, 1.786406e-10, 5.227097e+01, 1.866498e-02
6.142000e+08, 2.421429e-02, 7.992887e-01, 3.974021e-01, -6.829429e-01, 1.045565e-11, 1.786552e-10, 5.228351e+01, 1.875183e-02
6.180000e+08, 2.434196e-02, 7.993107e-01, 3.971525e-01, -6.872085e-01, 9.748473e-12, 1.786688e-10, 5.229607e+01, 1.883959e-02
6.218000e+08, 2.447000e-02, 7.993319e-01, 3.969197e-01, -6.914744e-01, 9.054529e-12, 1.786817e-10, 5.230866e+01, 1.892827e-02
6.256000e+08, 2.459846e-02, 7.993522e-01, 3.967036e-01, -6.957406e-01, 8.375087e-12, 1.786937e-10, 5.232127e+01, 1.901792e-02
6.294000e+08, 2.472735e-02, 7.993718e-01, 3.965036e-01, -7.000072e-01, 7.711370e-12, 1.787049e-10, 5.233391e+01, 1.910855e-02
6.332000e+08, 2.485673e-02, 7.993905e-01, 3.963195e-01, -7.042739e-01, 7.064556e-12, 1.787153e-10, 5.234659e+01, 1.920018e-02
6.370000e+08, 2.498663e-02, 7.994084e-01, 3.961508e-01, -7.085410e-01, 6.435771e-12, 1.787250e-10, 5.235932e+01, 1.929284e-02
6.408000e+08, 2.511708e-02, 7.994256e-01, 3.959971e-01, -7.128082e-01, 5.826098e-12, 1.787339e-10, 5.237208e+01, 1.938654e-02
6.446000e+08, 2.524812e-02, 7.994420e-01, 3.958580e-01, -7.170757e-01, 5.236571e-12, 1.787421e-10, 5.238489e+01, 1.948131e-02
6.484000e+08, 2.537979e-02, 7.994576e-01, 3.957330e-01, -7.213433e-01, 4.668179e-12, 1.787496e-10, 5.239775e+01, 1.957715e-02
6.522000e+08, 2.551213e-02, 7.994725e-01, 3.956216e-01, -7.256112e-01, 4.121865e-12, 1.787564e-10, 5.241067e+01, 1.967409e-02
6.560000e+08, 2.564516e-02, 7.994866e-01, 3.955231e-01, -7.298792e-01, 3.598528e-12, 1.787625e-10, 5.242364e+01, 1.977213e-02
6.598000e+08, 2.577893e-02, 7.995000e-01, 3.954372e-01, -7.341473e-01, 3.099021e-12, 1.787680e-10, 5.243668e+01, 1.987128e-02
6.636000e+08, 2.591347e-02, 7.995127e-01, 3.953632e-01, -7.384156e-01, 2.624153e-12, 1.787729e-10, 5.244978e+01, 1.997156e-02
6.674000e+08, 2.604881e-02, 7.995247e-01, 3.953006e-01, -7.426840e-01, 2.174691e-12, 1.787772e-10, 5.246296e+01, 2.007297e-02
6.712000e+08, 2.618498e-02, 7.995359e-01, 3.952486e-01, -7.469525e-01, 1.751355e-12, 1.787809e-10, 5.247620e+01, 2.017551e-02
6.750000e+08, 2.632203e-02, 7.995465e-01, 3.952068e-01, -7.512211e-01, 1.354824e-12, 1.787840e-10, 5.248953e+01, 2.027918e-02
6.788000e+08, 2.645997e-02, 7.995563e-01, 3.951745e-01, -7.554898e-01, 9.857341e-13, 1.787866e-10, 5.250293e+01, 2.038400e-02
6.826000e+08, 2.659886e-02, 7.995655e-01, 3.951509e-01, -7.597585e-01, 6.446779e-13, 1.787886e-10, 5.251642e+01, 2.048996e-02
6.864000e+08, 2.673871e-02, 7.995741e-01, 3.951356e-01, -7.640273e-01, 3.322059e-13, 1.787901e-10, 5.253000e+01, 2.059705e-02
6.902000e+08, 2.687955e-02, 7.995819e-01, 3.951276e-01, -7.682961e-01, 4.882802e-14, 1.787911e-10, 5.254367e+01, 2.070528e-02
6.940000e+08, 2.702143e-02, 7.995891e-01, 3.951265e-01, -7.725649e-01, -2.049892e-13, 1.787916e-10, 5.255744e+01, 2.081464e-02
6.978000e+08, 2.716438e-02, 7.995957e-01, 3.951314e-01, -7.768338e-01, -4.288183e-13, 1.787917e-10, 5.257131e+01, 2.092512e-02
7.016000e+08, 2.730841e-02, 7.996017e-01, 3.951416e-01, -7.811026e-01, -6.222742e-13, 1.787913e-10, 5.258528e+01, 2.103672e-02
7.054000e+08, 2.745357e-02, 7.996070e-01, 3.951564e-01, -7.853715e-01, -7.850100e-13, 1.787904e-10, 5.259936e+01, 2.114943e-02
7.092000e+08, 2.759987e-02, 7.996117e-01, 3.951752e-01, -7.896403e-01, -9.167205e-13, 1.787892e-10, 5.261355e+01, 2.126324e-02
7.130000e+08, 2.774736e-02, 7.996158e-01, 3.951971e-01, -7.939091e-01, -1.017139e-12, 1.787875e-10, 5.262786e+01, 2.137812e-02
7.168000e+08, 2.789606e-02, 7.996193e-01, 3.952214e-01, -7.981778e-01, -1.086037e-12, 1.787854e-10, 5.264228e+01, 2.149408e-02
7.206000e+08, 2.804599e-02, 7.996222e-01, 3.952473e-01, -8.024465e-01, -1.123224e-12, 1.787830e-10, 5.265683e+01, 2.161110e-02
7.244000e+08, 2.819719e-02, 7.996246e-01, 3.952741e-01, -8.067152e-01, -1.128548e-12, 1.787802e-10, 5.267150e+01, 2.172915e-02
7.282000e+08, 2.834968e-02, 7.996264e-01, 3.953011e-01, -8.109837e-01, -1.101894e-12, 1.787770e-10, 5.268630e+01, 2.184822e-02
7.320000e+08, 2.850349e-02, 7.996276e-01, 3.953274e-01, -8.152522e-01, -1.043183e-12, 1.787735e-10, 5.270123e+01, 2.196830e-02
7.358000e+08, 2.865865e-02, 7.996283e-01, 3.953523e-01, -8.195207e-01, -9.523715e-13, 1.787697e-10, 5.271630e+01, 2.208935e-02
7.396000e+08, 2.881517e-02, 7.996285e-01, 3.953750e-01, -8.237890e-01, -8.294507e-13, 1.787656e-10, 5.273151e+01, 2.221137e-02
7.434000e+08, 2.897309e-02, 7.996281e-01, 3.953948e-01, -8.280572e-01, -6.744469e-13, 1.787611e-10, 5.274687e+01, 2.233432e-02
7.472000e+08, 2.913243e-02, 7.996273e-01, 3.954109e-01, -8.323253e-01, -4.874197e-13, 1.787564e-10, 5.276237e+01, 2.245818e-02
7.510000e+08, 2.929321e-02, 7.996259e-01, 3.954226e-01, -8.365933e-01, -2.684609e-13, 1.787515e-10, 5.277802e+01, 2.258293e-02
7.548000e+08, 2.945546e-02, 7.996240e-01, 3.954290e-01, -8.408612e-01, -1.769535e-14, 1.787462e-10, 5.279383e+01, 2.270853e-02
7.586000e+08, 2.961920e-02, 7.996216e-01, 3.954294e-01, -8.451290e-01, 2.647218e-13, 1.787407e-10, 5.280979e+01, 2.283496e-02
7.624000e+08, 2.978445e-02, 7.996187e-01, 3.954231e-01, -8.493966e-01, 5.786047e-13, 1.787350e-10, 5.282591e+01, 2.296220e-02
7.662000e+08, 2.995124e-02, 7.996154e-01, 3.954093e-01, -8.536641e-01, 9.237388e-13, 1.787291e-10, 5.284220e+01, 2.309020e-02
7.700000e+08, 3.011958e-02, 7.996116e-01, 3.953872e-01, -8.579315e-01, 1.299880e-12, 1.787230e-10, 5.285865e+01, 2.321894e-02
7.738000e+08, 3.028950e-02, 7.996073e-01, 3.953562e-01, -8.621987e-01, 1.706757e-12, 1.787166e-10, 5.287528e+01, 2.334839e-02
7.776000e+08, 3.046101e-02, 7.996026e-01, 3.953154e-01, -8.664657e-01, 2.144073e-12, 1.787101e-10, 5.289207e+01, 2.347850e-02
7.814000e+08, 3.063414e-02, 7.995975e-01, 3.952642e-01, -8.707326e-01, 2.611504e-12, 1.787034e-10, 5.290905e+01, 2.360925e-02
7.852000e+08, 3.080890e-02, 7.995919e-01, 3.952019e-01, -8.749994e-01, 3.108701e-12, 1.786965e-10, 5.292620e+01, 2.374059e-02
7.890000e+08, 3.098532e-02, 7.995859e-01, 3.951276e-01, -8.792660e-01, 3.635293e-12, 1.786895e-10, 5.294354e+01, 2.387250e-02
7.928000e+08, 3.116341e-02, 7.995795e-01, 3.950408e-01, -8.835324e-01, 4.190887e-12, 1.786824e-10, 5.296107e+01, 2.400493e-02
