Frequency [Hz], |S00| [-], |S10| [-], Arg(S00) [-], Arg(S10) [-], Delay 0>0 [s], Delay 0>1 [s], |Z0| [Ohm] , Arg(Z0) [-]
2.000000e+08, 6.594448e-01, 8.098647e-01, -2.245564e+00, -1.014477e+00, 8.609074e-10, 1.403272e-10, 7.691316e+01, 1.068915e+00
2.038000e+08, 6.558870e-01, 7.996919e-01, -2.266119e+00, -1.017828e+00, 8.624956e-10, 1.219167e-10, 7.848115e+01, 1.055968e+00
2.076000e+08, 6.523103e-01, 7.895889e-01, -2.286712e+00, -1.020739e+00, 8.637607e-10, 1.022437e-10, 8.008148e+01, 1.042494e+00
2.114000e+08, 6.487077e-01, 7.795718e-01, -2.307335e+00, -1.023180e+00, 8.646857e-10, 8.129359e-11, 8.171265e+01, 1.028463e+00
2.152000e+08, 6.450721e-01, 7.696584e-01, -2.327980e+00, -1.025121e+00, 8.652491e-10, 5.906551e-11, 8.337268e+01, 1.013843e+00
2.190000e+08, 6.413967e-01, 7.598690e-01, -2.348639e+00, -1.026531e+00, 8.654246e-10, 3.557617e-11, 8.505906e+01, 9.986049e-01
2.228000e+08, 6.376747e-01, 7.502258e-01, -2.369302e+00, -1.027381e+00, 8.651809e-10, 1.086442e-11, 8.676867e+01, 9.827181e-01
2.266000e+08, 6.338994e-01, 7.407533e-01, -2.389959e+00, -1.027640e+00, 8.644815e-10, -1.500366e-11, 8.849770e+01, 9.661547e-01
2.304000e+08, 6.300643e-01, 7.314786e-01, -2.410600e+00, -1.027282e+00, 8.632853e-10, -4.192945e-11, 9.024156e+01, 9.488886e-01
2.342000e+08, 6.261634e-01, 7.224312e-01, -2.431212e+00, -1.026281e+00, 8.615467e-10, -6.977620e-11, 9.199482e+01, 9.308970e-01
2.380000e+08, 6.221909e-01, 7.136427e-01, -2.451782e+00, -1.024615e+00, 8.592160e-10, -9.836370e-11, 9.375115e+01, 9.121608e-01
2.418000e+08, 6.181416e-01, 7.051473e-01, -2.472297e+00, -1.022266e+00, 8.562409e-10, -1.274636e-10, 9.550326e+01, 8.926660e-01
2.456000e+08, 6.140109e-01, 6.969811e-01, -2.492740e+00, -1.019223e+00, 8.525672e-10, -1.567961e-10, 9.724292e+01, 8.724047e-01
2.494000e+08, 6.097950e-01, 6.891821e-01, -2.513096e+00, -1.015479e+00, 8.481410e-10, -1.860282e-10, 9.896092e+01, 8.513768e-01
2.532000e+08, 6.054910e-01, 6.817895e-01, -2.533347e+00, -1.011037e+00, 8.429109e-10, -2.147752e-10, 1.006472e+02, 8.295907e-01
2.570000e+08, 6.010972e-01, 6.748432e-01, -2.553472e+00, -1.005909e+00, 8.368300e-10, -2.426054e-10, 1.022907e+02, 8.070646e-01
2.608000e+08, 5.966130e-01, 6.683831e-01, -2.573452e+00, -1.000117e+00, 8.298593e-10, -2.690490e-10, 1.038802e+02, 7.838281e-01
2.646000e+08, 5.920390e-01, 6.624485e-01, -2.593266e+00, -9.936932e-01, 8.219704e-10, -2.936112e-10, 1.054036e+02, 7.599222e-01
2.684000e+08, 5.873777e-01, 6.570765e-01, -2.612892e+00, -9.866829e-01, 8.131487e-10, -3.157899e-10, 1.068491e+02, 7.354006e-01
2.722000e+08, 5.826328e-01, 6.523017e-01, -2.632306e+00, -9.791430e-01, 8.033958e-10, -3.350972e-10, 1.082048e+02, 7.103290e-01
2.760000e+08, 5.778097e-01, 6.481545e-01, -2.651488e+00, -9.711422e-01, 7.927319e-10, -3.510827e-10, 1.094597e+02, 6.847850e-01
2.798000e+08, 5.729154e-01, 6.446607e-01, -2.670416e+00, -9.627597e-01, 7.811970e-10, -3.633577e-10, 1.106037e+02, 6.588569e-01
2.836000e+08, 5.679582e-01, 6.418400e-01, -2.689068e+00, -9.540842e-01, 7.688514e-10, -3.716175e-10, 1.116282e+02, 6.326417e-01
2.874000e+08, 5.629481e-01, 6.397059e-01, -2.707425e+00, -9.452114e-01, 7.557746e-10, -3.756598e-10, 1.125264e+02, 6.062435e-01
2.912000e+08, 5.578960e-01, 6.382645e-01, -2.725470e+00, -9.362421e-01, 7.420634e-10, -3.753963e-10, 1.132933e+02, 5.797701e-01
2.950000e+08, 5.528137e-01, 6.375149e-01, -2.743187e+00, -9.272791e-01, 7.278286e-10, -3.708573e-10, 1.139264e+02, 5.533306e-01
2.988000e+08, 5.477137e-01, 6.374489e-01, -2.760565e+00, -9.184245e-01, 7.131915e-10, -3.621880e-10, 1.144252e+02, 5.270321e-01
3.026000e+08, 5.426089e-01, 6.380514e-01, -2.777593e+00, -9.097768e-01, 6.982789e-10, -3.496377e-10, 1.147915e+02, 5.009768e-01
3.064000e+08, 5.375120e-01, 6.393012e-01, -2.794265e+00, -9.014288e-01, 6.832191e-10, -3.335418e-10, 1.150292e+02, 4.752600e-01
3.102000e+08, 5.324355e-01, 6.411717e-01, -2.810578e+00, -8.934652e-01, 6.681372e-10, -3.143013e-10, 1.151440e+02, 4.499672e-01
3.140000e+08, 5.273916e-01, 6.436316e-01, -2.826531e+00, -8.859609e-01, 6.531512e-10, -2.923591e-10, 1.151429e+02, 4.251732e-01
3.178000e+08, 5.223915e-01, 6.466465e-01, -2.842125e+00, -8.789805e-01, 6.383693e-10, -2.681776e-10, 1.150344e+02, 4.009410e-01
3.216000e+08, 5.174454e-01, 6.501793e-01, -2.857367e+00, -8.725774e-01, 6.238875e-10, -2.422184e-10, 1.148275e+02, 3.773212e-01
3.254000e+08, 5.125626e-01, 6.541916e-01, -2.872263e+00, -8.667942e-01, 6.097884e-10, -2.149244e-10, 1.145315e+02, 3.543527e-01
3.292000e+08, 5.077512e-01, 6.586444e-01, -2.886822e+00, -8.616627e-01, 5.961402e-10, -1.867077e-10, 1.141563e+02, 3.320629e-01
3.330000e+08, 5.030182e-01, 6.634989e-01, -2.901056e+00, -8.572048e-01, 5.829975e-10, -1.579403e-10, 1.137113e+02, 3.104686e-01
3.368000e+08, 4.983693e-01, 6.687170e-01, -2.914976e+00, -8.534338e-01, 5.704015e-10, -1.289487e-10, 1.132055e+02, 2.895774e-01
3.406000e+08, 4.938092e-01, 6.742623e-01, -2.928595e+00, -8.503550e-01, 5.583813e-10, -1.000125e-10, 1.126477e+02, 2.693887e-01
3.444000e+08, 4.893415e-01, 6.800997e-01, -2.941927e+00, -8.479671e-01, 5.469551e-10, -7.136493e-11, 1.120460e+02, 2.498951e-01
3.482000e+08, 4.849687e-01, 6.861962e-01, -2.954986e+00, -8.462632e-01, 5.361318e-10, -4.319560e-11, 1.114075e+02, 2.310835e-01
3.520000e+08, 4.806926e-01, 6.925209e-01, -2.967786e+00, -8.452318e-01, 5.259121e-10, -1.565407e-11, 1.107390e+02, 2.129365e-01
3.558000e+08, 4.765140e-01, 6.990450e-01, -2.980343e+00, -8.448581e-01, 5.162903e-10, 1.114553e-11, 1.100463e+02, 1.954333e-01
3.596000e+08, 4.724330e-01, 7.057419e-01, -2.992670e+00, -8.451242e-01, 5.072552e-10, 3.711978e-11, 1.093347e+02, 1.785504e-01
3.634000e+08, 4.684493e-01, 7.125872e-01, -3.004781e+00, -8.460105e-01, 4.987914e-10, 6.221130e-11, 1.086088e+02, 1.622631e-01
3.672000e+08, 4.645618e-01, 7.195581e-01, -3.016691e+00, -8.474958e-01, 4.908806e-10, 8.638435e-11, 1.078724e+02, 1.465451e-01
3.710000e+08, 4.607690e-01, 7.266342e-01, -3.028411e+00, -8.495584e-01, 4.835020e-10, 1.096208e-10, 1.071289e+02, 1.313702e-01
3.748000e+08, 4.570692e-01, 7.337964e-01, -3.039955e+00, -8.521757e-01, 4.766332e-10, 1.319167e-10, 1.063812e+02, 1.167119e-01
3.786000e+08, 4.534601e-01, 7.410277e-01, -3.051335e+00, -8.553253e-01, 4.702508e-10, 1.532789e-10, 1.056317e+02, 1.025442e-01
3.824000e+08, 4.499394e-01, 7.483121e-01, -3.062563e+00, -8.589850e-01, 4.643310e-10, 1.737229e-10, 1.048824e+02, 8.884163e-02
3.862000e+08, 4.465044e-01, 7.556354e-01, -3.073649e+00, -8.631329e-01, 4.588499e-10, 1.932703e-10, 1.041349e+02, 7.557975e-02
3.900000e+08, 4.431524e-01, 7.629844e-01, -3.084605e+00, -8.677474e-01, 4.537838e-10, 2.119469e-10, 1.033905e+02, 6.273498e-02
3.938000e+08, 4.398804e-01, 7.703469e-01, -3.095440e+00, -8.728079e-01, 4.491093e-10, 2.297818e-10, 1.026503e+02, 5.028487e-02
3.976000e+08, 4.366855e-01, 7.777121e-01, -3.106163e+00, -8.782942e-01, 4.448037e-10, 2.468058e-10, 1.019151e+02, 3.820813e-02
4.014000e+08, 4.335646e-01, 7.850696e-01, -3.116783e+00, -8.841869e-01, 4.408449e-10, 2.630505e-10, 1.011855e+02, 2.648468e-02
4.052000e+08, 4.305147e-01, 7.924102e-01, -3.127308e+00, -8.904675e-01, 4.372118e-10, 2.785478e-10, 1.004620e+02, 1.509566e-02
4.090000e+08, 4.275328e-01, 7.997251e-01, -3.137747e+00, -8.971182e-01, 4.338839e-10, 2.933292e-10, 9.974487e+01, 4.023377e-03
4.128000e+08, 4.246156e-01, 8.070066e-01, 3.135079e+00, -9.041217e-01, 4.308418e-10, 3.074254e-10, 9.903435e+01, -6.748667e-03
4.166000e+08, 4.217602e-01, 8.142470e-01, 3.124792e+00, -9.114619e-01, 4.280669e-10, 3.208664e-10, 9.833051e+01, -1.723583e-02
4.204000e+08, 4.189636e-01, 8.214397e-01, 3.114571e+00, -9.191229e-01, 4.255415e-10, 3.336806e-10, 9.763337e+01, -2.745237e-02
4.242000e+08, 4.162228e-01, 8.285781e-01, 3.104411e+00, -9.270899e-01, 4.232487e-10, 3.458955e-10, 9.694287e+01, -3.741149e-02
4.280000e+08, 4.135349e-01, 8.356562e-01, 3.094305e+00, -9.353485e-01, 4.211726e-10, 3.575368e-10, 9.625891e+01, -4.712538e-02
4.318000e+08, 4.108970e-01, 8.426686e-01, 3.084249e+00, -9.438851e-01, 4.192980e-10, 3.686291e-10, 9.558134e+01, -5.660528e-02
4.356000e+08, 4.083064e-01, 8.496100e-01, 3.074238e+00, -9.526865e-01, 4.176105e-10, 3.791956e-10, 9.491000e+01, -6.586152e-02
4.394000e+08, 4.057602e-01, 8.564754e-01, 3.064267e+00, -9.617403e-01, 4.160966e-10, 3.892580e-10, 9.424467e+01, -7.490359e-02
4.432000e+08, 4.032559e-01, 8.632604e-01, 3.054332e+00, -9.710342e-01, 4.147433e-10, 3.988369e-10, 9.358515e+01, -8.374016e-02
4.470000e+08, 4.007909e-01, 8.699606e-01, 3.044430e+00, -9.805569e-01, 4.135385e-10, 4.079516e-10, 9.293121e+01, -9.237917e-02
4.508000e+08, 3.983627e-01, 8.765720e-01, 3.034556e+00, -9.902972e-01, 4.124708e-10, 4.166203e-10, 9.228261e+01, -1.008278e-01
4.546000e+08, 3.959688e-01, 8.830908e-01, 3.024708e+00, -1.000244e+00, 4.115291e-10, 4.248600e-10, 9.163913e+01, -1.090927e-01
4.584000e+08, 3.936069e-01, 8.895134e-01, 3.014882e+00, -1.010388e+00, 4.107032e-10, 4.326868e-10, 9.100053e+01, -1.171798e-01
4.622000e+08, 3.912747e-01, 8.958368e-01, 3.005076e+00, -1.020719e+00, 4.099835e-10, 4.401161e-10, 9.036659e+01, -1.250945e-01
4.660000e+08, 3.889700e-01, 9.020576e-01, 2.995288e+00, -1.031228e+00, 4.093607e-10, 4.471620e-10, 8.973710e+01, -1.328417e-01
4.698000e+08, 3.866907e-01, 9.081732e-01, 2.985514e+00, -1.041904e+00, 4.088262e-10, 4.538383e-10, 8.911185e+01, -1.404256e-01
4.736000e+08, 3.844348e-01, 9.141808e-01, 2.975753e+00, -1.052740e+00, 4.083718e-10, 4.601579e-10, 8.849064e+01, -1.478504e-01
4.774000e+08, 3.822002e-01, 9.200782e-01, 2.966002e+00, -1.063727e+00, 4.079898e-10, 4.661331e-10, 8.787330e+01, -1.551194e-01
4.812000e+08, 3.799851e-01, 9.258630e-01, 2.956261e+00, -1.074856e+00, 4.076730e-10, 4.717757e-10, 8.725964e+01, -1.622358e-01
4.850000e+08, 3.777876e-01, 9.315332e-01, 2.946527e+00, -1.086120e+00, 4.074145e-10, 4.770969e-10, 8.664952e+01, -1.692025e-01
4.888000e+08, 3.756061e-01, 9.370872e-01, 2.936800e+00, -1.097512e+00, 4.072080e-10, 4.821077e-10, 8.604279e+01, -1.760218e-01
4.926000e+08, 3.734387e-01, 9.425232e-01, 2.927077e+00, -1.109022e+00, 4.070473e-10, 4.868183e-10, 8.543934e+01, -1.826960e-01
4.964000e+08, 3.712840e-01, 9.478399e-01, 2.917359e+00, -1.120646e+00, 4.069269e-10, 4.912390e-10, 8.483903e+01, -1.892269e-01
5.002000e+08, 3.691403e-01, 9.530360e-01, 2.907643e+00, -1.132375e+00, 4.068413e-10, 4.953794e-10, 8.424179e+01, -1.956163e-01
5.040000e+08, 3.670062e-01, 9.581106e-01, 2.897929e+00, -1.144202e+00, 4.067857e-10, 4.992492e-10, 8.364751e+01, -2.018656e-01
5.078000e+08, 3.648802e-01, 9.630627e-01, 2.888217e+00, -1.156122e+00, 4.067553e-10, 5.028574e-10, 8.305614e+01, -2.079760e-01
5.116000e+08, 3.627611e-01, 9.678918e-01, 2.878505e+00, -1.168129e+00, 4.067457e-10, 5.062131e-10, 8.246761e+01, -2.139488e-01
5.154000e+08, 3.606476e-01, 9.725974e-01, 2.868793e+00, -1.180215e+00, 4.067530e-10, 5.093251e-10, 8.188189e+01, -2.197847e-01
5.192000e+08, 3.585383e-01, 9.771791e-01, 2.859082e+00, -1.192376e+00, 4.067734e-10, 5.122020e-10, 8.129893e+01, -2.254846e-01
5.230000e+08, 3.564322e-01, 9.816368e-01, 2.849369e+00, -1.204605e+00, 4.068032e-10, 5.148522e-10, 8.071872e+01, -2.310493e-01
5.268000e+08, 3.543281e-01, 9.859706e-01, 2.839657e+00, -1.216898e+00, 4.068393e-10, 5.172841e-10, 8.014125e+01, -2.364792e-01
5.306000e+08, 3.522251e-01, 9.901806e-01, 2.829943e+00, -1.229249e+00, 4.068787e-10, 5.195056e-10, 7.956652e+01, -2.417750e-01
5.344000e+08, 3.501220e-01, 9.942673e-01, 2.820228e+00, -1.241652e+00, 4.069184e-10, 5.215249e-10, 7.899453e+01, -2.469369e-01
5.382000e+08, 3.480180e-01, 9.982311e-01, 2.810513e+00, -1.254104e+00, 4.069561e-10, 5.233497e-10, 7.842531e+01, -2.519654e-01
5.420000e+08, 3.459122e-01, 1.002073e+00, 2.800796e+00, -1.266600e+00, 4.069893e-10, 5.249878e-10, 7.785889e+01, -2.568608e-01
5.458000e+08, 3.438037e-01, 1.005793e+00, 2.791079e+00, -1.279135e+00, 4.070158e-10, 5.264466e-10, 7.729529e+01, -2.616234e-01
5.496000e+08, 3.416918e-01, 1.009392e+00, 2.781361e+00, -1.291704e+00, 4.070337e-10, 5.277336e-10, 7.673457e+01, -2.662534e-01
5.534000e+08, 3.395756e-01, 1.012873e+00, 2.771642e+00, -1.304304e+00, 4.070412e-10, 5.288561e-10, 7.617676e+01, -2.707509e-01
5.572000e+08, 3.374546e-01, 1.016234e+00, 2.761924e+00, -1.316931e+00, 4.070367e-10, 5.298212e-10, 7.562191e+01, -2.751163e-01
5.610000e+08, 3.353281e-01, 1.019479e+00, 2.752205e+00, -1.329581e+00, 4.070187e-10, 5.306360e-10, 7.507009e+01, -2.793498e-01
5.648000e+08, 3.331954e-01, 1.022609e+00, 2.742487e+00, -1.342251e+00, 4.069859e-10, 5.313073e-10, 7.452136e+01, -2.834514e-01
5.686000e+08, 3.310559e-01, 1.025624e+00, 2.732770e+00, -1.354936e+00, 4.069371e-10, 5.318418e-10, 7.397577e+01, -2.874214e-01
5.724000e+08, 3.289093e-01, 1.028526e+00, 2.723054e+00, -1.367635e+00, 4.068714e-10, 5.322460e-10, 7.343340e+01, -2.912600e-01
5.762000e+08, 3.267549e-01, 1.031318e+00, 2.713340e+00, -1.380343e+00, 4.067877e-10, 5.325264e-10, 7.289432e+01, -2.949675e-01
5.800000e+08, 3.245923e-01, 1.034000e+00, 2.703627e+00, -1.393057e+00, 4.066854e-10, 5.326892e-10, 7.235859e+01, -2.985440e-01
5.838000e+08, 3.224212e-01, 1.036575e+00, 2.693917e+00, -1.405776e+00, 4.065636e-10, 5.327405e-10, 7.182628e+01, -3.019898e-01
5.876000e+08, 3.202411e-01, 1.039044e+00, 2.684210e+00, -1.418496e+00, 4.064219e-10, 5.326863e-10, 7.129748e+01, -3.053052e-01
5.914000e+08, 3.180516e-01, 1.041410e+00, 2.674506e+00, -1.431214e+00, 4.062597e-10, 5.325323e-10, 7.077225e+01, -3.084906e-01
5.952000e+08, 3.158525e-01, 1.043674e+00, 2.664806e+00, -1.443929e+00, 4.060767e-10, 5.322840e-10, 7.025066e+01, -3.115461e-01
5.990000e+08, 3.136435e-01, 1.045838e+00, 2.655111e+00, -1.456638e+00, 4.058725e-10, 5.319470e-10, 6.973280e+01, -3.144722e-01
6.028000e+08, 3.114244e-01, 1.047905e+00, 2.645420e+00, -1.469339e+00, 4.056469e-10, 5.315265e-10, 6.921872e+01, -3.172693e-01
6.066000e+08, 3.091948e-01, 1.049877e+00, 2.635735e+00, -1.482029e+00, 4.053997e-10, 5.310274e-10, 6.870850e+01, -3.199378e-01
6.104000e+08, 3.069546e-01, 1.051754e+00, 2.626055e+00, -1.494708e+00, 4.051309e-10, 5.304548e-10, 6.820222e+01, -3.224781e-01
6.142000e+08, 3.047036e-01, 1.053541e+00, 2.616382e+00, -1.507374e+00, 4.048402e-10, 5.298134e-10, 6.769993e+01, -3.248907e-01
6.180000e+08, 3.024417e-01, 1.055238e+00, 2.606716e+00, -1.520023e+00, 4.045278e-10, 5.291078e-10, 6.720170e+01, -3.271761e-01
6.218000e+08, 3.001687e-01, 1.056849e+00, 2.597058e+00, -1.532656e+00, 4.041936e-10, 5.283422e-10, 6.670760e+01, -3.293349e-01
6.256000e+08, 2.978845e-01, 1.058374e+00, 2.587407e+00, -1.545271e+00, 4.038378e-10, 5.275210e-10, 6.621768e+01, -3.313675e-01
6.294000e+08, 2.955891e-01, 1.059817e+00, 2.577765e+00, -1.557866e+00, 4.034604e-10, 5.266482e-10, 6.573202e+01, -3.332747e-01
6.332000e+08, 2.932823e-01, 1.061179e+00, 2.568132e+00, -1.570441e+00, 4.030617e-10, 5.257276e-10, 6.525066e+01, -3.350570e-01
6.370000e+08, 2.909641e-01, 1.062463e+00, 2.558509e+00, -1.582993e+00, 4.026417e-10, 5.247629e-10, 6.477366e+01, -3.367151e-01
6.408000e+08, 2.886346e-01, 1.063670e+00, 2.548895e+00, -1.595522e+00, 4.022007e-10, 5.237578e-10, 6.430107e+01, -3.382496e-01
6.446000e+08, 2.862936e-01, 1.064804e+00, 2.539292e+00, -1.608028e+00, 4.017389e-10, 5.227156e-10, 6.383294e+01, -3.396613e-01
6.484000e+08, 2.839412e-01, 1.065865e+00, 2.529700e+00, -1.620508e+00, 4.012565e-10, 5.216396e-10, 6.336932e+01, -3.409509e-01
6.522000e+08, 2.815773e-01, 1.066856e+00, 2.520120e+00, -1.632963e+00, 4.007538e-10, 5.205327e-10, 6.291025e+01, -3.421191e-01
6.560000e+08, 2.792022e-01, 1.067779e+00, 2.510551e+00, -1.645391e+00, 4.002309e-10, 5.193980e-10, 6.245577e+01, -3.431668e-01
6.598000e+08, 2.768156e-01, 1.068636e+00, 2.500995e+00, -1.657792e+00, 3.996883e-10, 5.182382e-10, 6.200593e+01, -3.440946e-01
6.636000e+08, 2.744178e-01, 1.069429e+00, 2.491452e+00, -1.670166e+00, 3.991262e-10, 5.170560e-10, 6.156075e+01, -3.449035e-01
6.674000e+08, 2.720088e-01, 1.070160e+00, 2.481923e+00, -1.682511e+00, 3.985447e-10, 5.158538e-10, 6.112027e+01, -3.455943e-01
6.712000e+08, 2.695887e-01, 1.070831e+00, 2.472407e+00, -1.694828e+00, 3.979442e-10, 5.146341e-10, 6.068452e+01, -3.461678e-01
6.750000e+08, 2.671576e-01, 1.071444e+00, 2.462906e+00, -1.707115e+00, 3.973250e-10, 5.133991e-10, 6.025353e+01, -3.466250e-01
6.788000e+08, 2.647155e-01, 1.072000e+00, 2.453419e+00, -1.719373e+00, 3.966873e-10, 5.121508e-10, 5.982733e+01, -3.469666e-01
6.826000e+08, 2.622626e-01, 1.072502e+00, 2.443948e+00, -1.731601e+00, 3.960314e-10, 5.108914e-10, 5.940594e+01, -3.471937e-01
6.864000e+08, 2.597991e-01, 1.072952e+00, 2.434492e+00, -1.743799e+00, 3.953574e-10, 5.096226e-10, 5.898937e+01, -3.473071e-01
6.902000e+08, 2.573249e-01, 1.073350e+00, 2.425052e+00, -1.755967e+00, 3.946657e-10, 5.083463e-10, 5.857765e+01, -3.473077e-01
6.940000e+08, 2.548403e-01, 1.073699e+00, 2.415629e+00, -1.768104e+00, 3.939563e-10, 5.070641e-10, 5.817080e+01, -3.471966e-01
6.978000e+08, 2.523455e-01, 1.074001e+00, 2.406223e+00, -1.780211e+00, 3.932297e-10, 5.057776e-10, 5.776882e+01, -3.469747e-01
7.016000e+08, 2.498405e-01, 1.074257e+00, 2.396834e+00, -1.792287e+00, 3.924858e-10, 5.044881e-10, 5.737173e+01, -3.466430e-01
7.054000e+08, 2.473255e-01, 1.074468e+00, 2.387463e+00, -1.804332e+00, 3.917250e-10, 5.031972e-10, 5.697954e+01, -3.462024e-01
7.092000e+08, 2.448007e-01, 1.074637e+00, 2.378111e+00, -1.816347e+00, 3.909472e-10, 5.019061e-10, 5.659226e+01, -3.456539e-01
7.130000e+08, 2.422662e-01, 1.074765e+00, 2.368776e+00, -1.828330e+00, 3.901527e-10, 5.006159e-10, 5.620990e+01, -3.449987e-01
7.168000e+08, 2.397223e-01, 1.074852e+00, 2.359461e+00, -1.840283e+00, 3.893416e-10, 4.993278e-10, 5.583245e+01, -3.442375e-01
7.206000e+08, 2.371690e-01, 1.074902e+00, 2.350165e+00, -1.852205e+00, 3.885139e-10, 4.980429e-10, 5.545992e+01, -3.433716e-01
7.244000e+08, 2.346067e-01, 1.074915e+00, 2.340889e+00, -1.864096e+00, 3.876696e-10, 4.967620e-10, 5.509232e+01, -3.424020e-01
7.282000e+08, 2.320354e-01, 1.074892e+00, 2.331633e+00, -1.875957e+00, 3.868088e-10, 4.954860e-10, 5.472963e+01, -3.413296e-01
7.320000e+08, 2.294553e-01, 1.074835e+00, 2.322397e+00, -1.887787e+00, 3.859315e-10, 4.942159e-10, 5.437187e+01, -3.401556e-01
7.358000e+08, 2.268666e-01, 1.074746e+00, 2.313183e+00, -1.899587e+00, 3.850376e-10, 4.929523e-10, 5.401903e+01, -3.388809e-01
7.396000e+08, 2.242696e-01, 1.074625e+00, 2.303989e+00, -1.911357e+00, 3.841270e-10, 4.916960e-10, 5.367109e+01, -3.375067e-01
7.434000e+08, 2.216644e-01, 1.074473e+00, 2.294818e+00, -1.923097e+00, 3.831996e-10, 4.904475e-10, 5.332807e+01, -3.360340e-01
7.472000e+08, 2.190513e-01, 1.074293e+00, 2.285669e+00, -1.934807e+00, 3.822553e-10, 4.892076e-10, 5.298994e+01, -3.344639e-01
7.510000e+08, 2.164303e-01, 1.074084e+00, 2.276542e+00, -1.946487e+00, 3.812938e-10, 4.879767e-10, 5.265670e+01, -3.327975e-01
7.548000e+08, 2.138018e-01, 1.073848e+00, 2.267438e+00, -1.958138e+00, 3.803150e-10, 4.867553e-10, 5.232835e+01, -3.310359e-01
7.586000e+08, 2.111659e-01, 1.073587e+00, 2.258358e+00, -1.969760e+00, 3.793185e-10, 4.855438e-10, 5.200487e+01, -3.291802e-01
7.624000e+08, 2.085229e-01, 1.073301e+00, 2.249301e+00, -1.981353e+00, 3.783039e-10, 4.843428e-10, 5.168625e+01, -3.272314e-01
7.662000e+08, 2.058729e-01, 1.072991e+00, 2.240269e+00, -1.992917e+00, 3.772710e-10, 4.831525e-10, 5.137249e+01, -3.251908e-01
7.700000e+08, 2.032161e-01, 1.072659e+00, 2.231261e+00, -2.004453e+00, 3.762191e-10, 4.819732e-10, 5.106356e+01, -3.230593e-01
7.738000e+08, 2.005528e-01, 1.072305e+00, 2.222278e+00, -2.015961e+00, 3.751479e-10, 4.808054e-10, 5.075945e+01, -3.208382e-01
7.776000e+08, 1.978831e-01, 1.071930e+00, 2.213321e+00, -2.027440e+00, 3.740568e-10, 4.796492e-10, 5.046016e+01, -3.185286e-01
7.814000e+08, 1.952073e-01, 1.071535e+00, 2.204390e+00, -2.038892e+00, 3.729450e-10, 4.785048e-10, 5.016567e+01, -3.161316e-01
7.852000e+08, 1.925256e-01, 1.071121e+00, 2.195486e+00, -2.050317e+00, 3.718118e-10, 4.773726e-10, 4.987596e+01, -3.136484e-01
7.890000e+08, 1.898382e-01, 1.070689e+00, 2.186608e+00, -2.061715e+00, 3.706566e-10, 4.762526e-10, 4.959101e+01, -3.110800e-01
