Frequency [Hz], |S00| [-], |S10| [-], Arg(S00) [-], Arg(S10) [-], Delay 0>0 [s], Delay 0>1 [s], |Z0| [Ohm] , Arg(Z0) [-]
2.000000e+08, 5.810961e-02, 8.029356e-01, -1.616980e+00, -3.878214e-01, 4.333805e-10, 2.834908e-10, 4.973334e+01, -1.159660e-01
2.038000e+08, 5.849393e-02, 8.029840e-01, -1.627328e+00, -3.945900e-01, 4.349263e-10, 2.841431e-10, 4.967171e+01, -1.166697e-01
2.076000e+08, 5.889028e-02, 8.030326e-01, -1.637712e+00, -4.013743e-01, 4.362179e-10, 2.847677e-10, 4.960912e+01, -1.173838e-01
2.114000e+08, 5.929805e-02, 8.030812e-01, -1.648127e+00, -4.081734e-01, 4.372751e-10, 2.853663e-10, 4.954557e+01, -1.181067e-01
2.152000e+08, 5.971669e-02, 8.031298e-01, -1.658567e+00, -4.149868e-01, 4.381162e-10, 2.859406e-10, 4.948109e+01, -1.188368e-01
2.190000e+08, 6.014565e-02, 8.031783e-01, -1.669028e+00, -4.218140e-01, 4.387583e-10, 2.864922e-10, 4.941567e+01, -1.195729e-01
2.228000e+08, 6.058444e-02, 8.032268e-01, -1.679504e+00, -4.286543e-01, 4.392173e-10, 2.870224e-10, 4.934934e+01, -1.203135e-01
2.266000e+08, 6.103258e-02, 8.032750e-01, -1.689991e+00, -4.355073e-01, 4.395081e-10, 2.875324e-10, 4.928209e+01, -1.210574e-01
2.304000e+08, 6.148962e-02, 8.033230e-01, -1.700484e+00, -4.423724e-01, 4.396444e-10, 2.880235e-10, 4.921396e+01, -1.218034e-01
2.342000e+08, 6.195514e-02, 8.033707e-01, -1.710981e+00, -4.492493e-01, 4.396392e-10, 2.884967e-10, 4.914494e+01, -1.225503e-01
2.380000e+08, 6.242873e-02, 8.034181e-01, -1.721478e+00, -4.561375e-01, 4.395044e-10, 2.889530e-10, 4.907506e+01, -1.232971e-01
2.418000e+08, 6.291001e-02, 8.034650e-01, -1.731972e+00, -4.630366e-01, 4.392511e-10, 2.893932e-10, 4.900432e+01, -1.240426e-01
2.456000e+08, 6.339861e-02, 8.035114e-01, -1.742459e+00, -4.699461e-01, 4.388897e-10, 2.898182e-10, 4.893274e+01, -1.247860e-01
2.494000e+08, 6.389419e-02, 8.035574e-01, -1.752938e+00, -4.768659e-01, 4.384297e-10, 2.902287e-10, 4.886033e+01, -1.255262e-01
2.532000e+08, 6.439640e-02, 8.036028e-01, -1.763406e+00, -4.837954e-01, 4.378801e-10, 2.906254e-10, 4.878711e+01, -1.262623e-01
2.570000e+08, 6.490492e-02, 8.036475e-01, -1.773861e+00, -4.907344e-01, 4.372492e-10, 2.910090e-10, 4.871309e+01, -1.269934e-01
2.608000e+08, 6.541945e-02, 8.036916e-01, -1.784301e+00, -4.976826e-01, 4.365447e-10, 2.913801e-10, 4.863829e+01, -1.277187e-01
2.646000e+08, 6.593969e-02, 8.037350e-01, -1.794724e+00, -5.046396e-01, 4.357736e-10, 2.917391e-10, 4.856272e+01, -1.284373e-01
2.684000e+08, 6.646536e-02, 8.037777e-01, -1.805129e+00, -5.116052e-01, 4.349426e-10, 2.920867e-10, 4.848640e+01, -1.291485e-01
2.722000e+08, 6.699617e-02, 8.038195e-01, -1.815513e+00, -5.185791e-01, 4.340578e-10, 2.924232e-10, 4.840935e+01, -1.298515e-01
2.760000e+08, 6.753187e-02, 8.038605e-01, -1.825877e+00, -5.255610e-01, 4.331249e-10, 2.927492e-10, 4.833157e+01, -1.305455e-01
2.798000e+08, 6.807219e-02, 8.039007e-01, -1.836218e+00, -5.325507e-01, 4.321492e-10, 2.930649e-10, 4.825309e+01, -1.312299e-01
2.836000e+08, 6.861689e-02, 8.039399e-01, -1.846536e+00, -5.395480e-01, 4.311355e-10, 2.933708e-10, 4.817392e+01, -1.319040e-01
2.874000e+08, 6.916573e-02, 8.039782e-01, -1.856830e+00, -5.465525e-01, 4.300884e-10, 2.936673e-10, 4.809408e+01, -1.325670e-01
2.912000e+08, 6.971846e-02, 8.040155e-01, -1.867099e+00, -5.535641e-01, 4.290119e-10, 2.939546e-10, 4.801359e+01, -1.332183e-01
2.950000e+08, 7.027487e-02, 8.040518e-01, -1.877342e+00, -5.605826e-01, 4.279100e-10, 2.942330e-10, 4.793246e+01, -1.338573e-01
2.988000e+08, 7.083474e-02, 8.040871e-01, -1.887559e+00, -5.676078e-01, 4.267863e-10, 2.945029e-10, 4.785072e+01, -1.344835e-01
3.026000e+08, 7.139784e-02, 8.041213e-01, -1.897749e+00, -5.746394e-01, 4.256439e-10, 2.947646e-10, 4.776838e+01, -1.350961e-01
3.064000e+08, 7.196396e-02, 8.041544e-01, -1.907912e+00, -5.816772e-01, 4.244860e-10, 2.950181e-10, 4.768545e+01, -1.356947e-01
3.102000e+08, 7.253291e-02, 8.041863e-01, -1.918047e+00, -5.887211e-01, 4.233154e-10, 2.952639e-10, 4.760196e+01, -1.362786e-01
3.140000e+08, 7.310448e-02, 8.042171e-01, -1.928154e+00, -5.957708e-01, 4.221346e-10, 2.955021e-10, 4.751793e+01, -1.368474e-01
3.178000e+08, 7.367848e-02, 8.042467e-01, -1.938233e+00, -6.028263e-01, 4.209460e-10, 2.957329e-10, 4.743337e+01, -1.374004e-01
3.216000e+08, 7.425471e-02, 8.042751e-01, -1.948283e+00, -6.098872e-01, 4.197519e-10, 2.959565e-10, 4.734830e+01, -1.379373e-01
3.254000e+08, 7.483298e-02, 8.043022e-01, -1.958305e+00, -6.169535e-01, 4.185541e-10, 2.961731e-10, 4.726274e+01, -1.384575e-01
3.292000e+08, 7.541312e-02, 8.043281e-01, -1.968299e+00, -6.240250e-01, 4.173546e-10, 2.963829e-10, 4.717671e+01, -1.389604e-01
3.330000e+08, 7.599494e-02, 8.043528e-01, -1.978264e+00, -6.311014e-01, 4.161551e-10, 2.965860e-10, 4.709024e+01, -1.394457e-01
3.368000e+08, 7.657827e-02, 8.043761e-01, -1.988200e+00, -6.381827e-01, 4.149571e-10, 2.967826e-10, 4.700333e+01, -1.399129e-01
3.406000e+08, 7.716294e-02, 8.043981e-01, -1.998107e+00, -6.452688e-01, 4.137620e-10, 2.969729e-10, 4.691602e+01, -1.403616e-01
3.444000e+08, 7.774877e-02, 8.044188e-01, -2.007986e+00, -6.523593e-01, 4.125712e-10, 2.971569e-10, 4.682831e+01, -1.407912e-01
3.482000e+08, 7.833560e-02, 8.044382e-01, -2.017837e+00, -6.594543e-01, 4.113858e-10, 2.973349e-10, 4.674023e+01, -1.412015e-01
3.520000e+08, 7.892326e-02, 8.044562e-01, -2.027659e+00, -6.665535e-01, 4.102070e-10, 2.975069e-10, 4.665181e+01, -1.415919e-01
3.558000e+08, 7.951159e-02, 8.044728e-01, -2.037453e+00, -6.736568e-01, 4.090356e-10, 2.976731e-10, 4.656305e+01, -1.419621e-01
3.596000e+08, 8.010044e-02, 8.044881e-01, -2.047220e+00, -6.807640e-01, 4.078726e-10, 2.978336e-10, 4.647398e+01, -1.423118e-01
3.634000e+08, 8.068965e-02, 8.045019e-01, -2.056958e+00, -6.878751e-01, 4.067188e-10, 2.979885e-10, 4.638462e+01, -1.426404e-01
3.672000e+08, 8.127906e-02, 8.045144e-01, -2.066669e+00, -6.949900e-01, 4.055749e-10, 2.981379e-10, 4.629499e+01, -1.429478e-01
3.710000e+08, 8.186853e-02, 8.045255e-01, -2.076352e+00, -7.021083e-01, 4.044416e-10, 2.982819e-10, 4.620512e+01, -1.432334e-01
3.748000e+08, 8.245791e-02, 8.045351e-01, -2.086009e+00, -7.092301e-01, 4.033195e-10, 2.984207e-10, 4.611501e+01, -1.434971e-01
3.786000e+08, 8.304704e-02, 8.045434e-01, -2.095639e+00, -7.163553e-01, 4.022091e-10, 2.985543e-10, 4.602470e+01, -1.437384e-01
3.824000e+08, 8.363578e-02, 8.045502e-01, -2.105242e+00, -7.234836e-01, 4.011109e-10, 2.986829e-10, 4.593420e+01, -1.439570e-01
3.862000e+08, 8.422400e-02, 8.045556e-01, -2.114819e+00, -7.306150e-01, 4.000253e-10, 2.988064e-10, 4.584354e+01, -1.441526e-01
3.900000e+08, 8.481156e-02, 8.045596e-01, -2.124370e+00, -7.377493e-01, 3.989526e-10, 2.989251e-10, 4.575273e+01, -1.443250e-01
3.938000e+08, 8.539830e-02, 8.045622e-01, -2.133895e+00, -7.448865e-01, 3.978932e-10, 2.990389e-10, 4.566179e+01, -1.444738e-01
3.976000e+08, 8.598411e-02, 8.045633e-01, -2.143395e+00, -7.520263e-01, 3.968473e-10, 2.991481e-10, 4.557075e+01, -1.445988e-01
4.014000e+08, 8.656884e-02, 8.045630e-01, -2.152871e+00, -7.591688e-01, 3.958152e-10, 2.992526e-10, 4.547963e+01, -1.446997e-01
4.052000e+08, 8.715236e-02, 8.045613e-01, -2.162321e+00, -7.663138e-01, 3.947971e-10, 2.993526e-10, 4.538845e+01, -1.447762e-01
4.090000e+08, 8.773454e-02, 8.045582e-01, -2.171747e+00, -7.734612e-01, 3.937932e-10, 2.994481e-10, 4.529723e+01, -1.448281e-01
4.128000e+08, 8.831525e-02, 8.045537e-01, -2.181150e+00, -7.806108e-01, 3.928036e-10, 2.995393e-10, 4.520599e+01, -1.448551e-01
4.166000e+08, 8.889437e-02, 8.045478e-01, -2.190528e+00, -7.877627e-01, 3.918283e-10, 2.996262e-10, 4.511475e+01, -1.448571e-01
4.204000e+08, 8.947177e-02, 8.045405e-01, -2.199884e+00, -7.949166e-01, 3.908676e-10, 2.997088e-10, 4.502353e+01, -1.448338e-01
4.242000e+08, 9.004732e-02, 8.045318e-01, -2.209216e+00, -8.020725e-01, 3.899213e-10, 2.997873e-10, 4.493235e+01, -1.447850e-01
4.280000e+08, 9.062091e-02, 8.045217e-01, -2.218526e+00, -8.092302e-01, 3.889897e-10, 2.998617e-10, 4.484124e+01, -1.447104e-01
4.318000e+08, 9.119241e-02, 8.045103e-01, -2.227813e+00, -8.163897e-01, 3.880726e-10, 2.999321e-10, 4.475021e+01, -1.446100e-01
4.356000e+08, 9.176171e-02, 8.044975e-01, -2.237079e+00, -8.235510e-01, 3.871701e-10, 2.999986e-10, 4.465928e+01, -1.444835e-01
4.394000e+08, 9.232868e-02, 8.044833e-01, -2.246323e+00, -8.307138e-01, 3.862822e-10, 3.000613e-10, 4.456848e+01, -1.443308e-01
4.432000e+08, 9.289322e-02, 8.044679e-01, -2.255546e+00, -8.378780e-01, 3.854088e-10, 3.001201e-10, 4.447783e+01, -1.441517e-01
4.470000e+08, 9.345520e-02, 8.044511e-01, -2.264748e+00, -8.450437e-01, 3.845498e-10, 3.001753e-10, 4.438734e+01, -1.439461e-01
4.508000e+08, 9.401452e-02, 8.044330e-01, -2.273930e+00, -8.522108e-01, 3.837052e-10, 3.002269e-10, 4.429704e+01, -1.437137e-01
4.546000e+08, 9.457106e-02, 8.044136e-01, -2.283091e+00, -8.593790e-01, 3.828750e-10, 3.002749e-10, 4.420695e+01, -1.434546e-01
4.584000e+08, 9.512472e-02, 8.043930e-01, -2.292233e+00, -8.665484e-01, 3.820589e-10, 3.003193e-10, 4.411709e+01, -1.431685e-01
4.622000e+08, 9.567539e-02, 8.043711e-01, -2.301355e+00, -8.737189e-01, 3.812570e-10, 3.003604e-10, 4.402747e+01, -1.428553e-01
4.660000e+08, 9.622296e-02, 8.043480e-01, -2.310458e+00, -8.808903e-01, 3.804691e-10, 3.003981e-10, 4.393813e+01, -1.425150e-01
4.698000e+08, 9.676732e-02, 8.043237e-01, -2.319542e+00, -8.880626e-01, 3.796951e-10, 3.004326e-10, 4.384907e+01, -1.421474e-01
4.736000e+08, 9.730838e-02, 8.042981e-01, -2.328607e+00, -8.952358e-01, 3.789348e-10, 3.004638e-10, 4.376031e+01, -1.417526e-01
4.774000e+08, 9.784603e-02, 8.042714e-01, -2.337655e+00, -9.024097e-01, 3.781882e-10, 3.004919e-10, 4.367189e+01, -1.413303e-01
4.812000e+08, 9.838016e-02, 8.042436e-01, -2.346684e+00, -9.095843e-01, 3.774551e-10, 3.005169e-10, 4.358381e+01, -1.408805e-01
4.850000e+08, 9.891069e-02, 8.042146e-01, -2.355697e+00, -9.167594e-01, 3.767353e-10, 3.005389e-10, 4.349610e+01, -1.404032e-01
4.888000e+08, 9.943751e-02, 8.041845e-01, -2.364692e+00, -9.239351e-01, 3.760287e-10, 3.005579e-10, 4.340878e+01, -1.398984e-01
4.926000e+08, 9.996052e-02, 8.041534e-01, -2.373670e+00, -9.311113e-01, 3.753352e-10, 3.005741e-10, 4.332186e+01, -1.393660e-01
4.964000e+08, 1.004796e-01, 8.041211e-01, -2.382631e+00, -9.382878e-01, 3.746546e-10, 3.005875e-10, 4.323537e+01, -1.388059e-01
5.002000e+08, 1.009948e-01, 8.040879e-01, -2.391577e+00, -9.454647e-01, 3.739867e-10, 3.005981e-10, 4.314932e+01, -1.382182e-01
5.040000e+08, 1.015058e-01, 8.040536e-01, -2.400506e+00, -9.526418e-01, 3.733313e-10, 3.006061e-10, 4.306373e+01, -1.376028e-01
5.078000e+08, 1.020127e-01, 8.040184e-01, -2.409420e+00, -9.598191e-01, 3.726884e-10, 3.006114e-10, 4.297863e+01, -1.369598e-01
5.116000e+08, 1.025153e-01, 8.039822e-01, -2.418318e+00, -9.669965e-01, 3.720577e-10, 3.006142e-10, 4.289402e+01, -1.362891e-01
5.154000e+08, 1.030135e-01, 8.039450e-01, -2.427201e+00, -9.741740e-01, 3.714391e-10, 3.006145e-10, 4.280993e+01, -1.355908e-01
5.192000e+08, 1.035073e-01, 8.039070e-01, -2.436070e+00, -9.813515e-01, 3.708323e-10, 3.006125e-10, 4.272638e+01, -1.348650e-01
5.230000e+08, 1.039966e-01, 8.038681e-01, -2.444924e+00, -9.885290e-01, 3.702373e-10, 3.006080e-10, 4.264339e+01, -1.341115e-01
5.268000e+08, 1.044812e-01, 8.038283e-01, -2.453764e+00, -9.957063e-01, 3.696539e-10, 3.006013e-10, 4.256097e+01, -1.333306e-01
5.306000e+08, 1.049612e-01, 8.037877e-01, -2.462589e+00, -1.002884e+00, 3.690818e-10, 3.005924e-10, 4.247914e+01, -1.325223e-01
5.344000e+08, 1.054364e-01, 8.037464e-01, -2.471402e+00, -1.010061e+00, 3.685210e-10, 3.005813e-10, 4.239791e+01, -1.316865e-01
5.382000e+08, 1.059067e-01, 8.037042e-01, -2.480201e+00, -1.017237e+00, 3.679711e-10, 3.005682e-10, 4.231731e+01, -1.308235e-01
5.420000e+08, 1.063721e-01, 8.036614e-01, -2.488986e+00, -1.024414e+00, 3.674322e-10, 3.005530e-10, 4.223736e+01, -1.299333e-01
5.458000e+08, 1.068325e-01, 8.036178e-01, -2.497759e+00, -1.031590e+00, 3.669040e-10, 3.005359e-10, 4.215807e+01, -1.290159e-01
5.496000e+08, 1.072878e-01, 8.035736e-01, -2.506519e+00, -1.038765e+00, 3.663863e-10, 3.005168e-10, 4.207945e+01, -1.280716e-01
5.534000e+08, 1.077380e-01, 8.035288e-01, -2.515267e+00, -1.045940e+00, 3.658789e-10, 3.004960e-10, 4.200152e+01, -1.271003e-01
5.572000e+08, 1.081829e-01, 8.034833e-01, -2.524003e+00, -1.053115e+00, 3.653817e-10, 3.004734e-10, 4.192431e+01, -1.261023e-01
5.610000e+08, 1.086225e-01, 8.034373e-01, -2.532727e+00, -1.060289e+00, 3.648946e-10, 3.004491e-10, 4.184782e+01, -1.250777e-01
5.648000e+08, 1.090567e-01, 8.033908e-01, -2.541439e+00, -1.067463e+00, 3.644173e-10, 3.004232e-10, 4.177208e+01, -1.240265e-01
5.686000e+08, 1.094854e-01, 8.033437e-01, -2.550140e+00, -1.074636e+00, 3.639497e-10, 3.003956e-10, 4.169710e+01, -1.229490e-01
5.724000e+08, 1.099087e-01, 8.032962e-01, -2.558830e+00, -1.081808e+00, 3.634916e-10, 3.003666e-10, 4.162288e+01, -1.218453e-01
5.762000e+08, 1.103263e-01, 8.032482e-01, -2.567508e+00, -1.088980e+00, 3.630429e-10, 3.003362e-10, 4.154946e+01, -1.207157e-01
5.800000e+08, 1.107383e-01, 8.031998e-01, -2.576177e+00, -1.096150e+00, 3.626034e-10, 3.003043e-10, 4.147685e+01, -1.195601e-01
5.838000e+08, 1.111446e-01, 8.031510e-01, -2.584834e+00, -1.103321e+00, 3.621730e-10, 3.002712e-10, 4.140505e+01, -1.183790e-01
5.876000e+08, 1.115451e-01, 8.031019e-01, -2.593481e+00, -1.110490e+00, 3.617514e-10, 3.002367e-10, 4.133409e+01, -1.171723e-01
5.914000e+08, 1.119397e-01, 8.030525e-01, -2.602119e+00, -1.117658e+00, 3.613386e-10, 3.002011e-10, 4.126399e+01, -1.159405e-01
5.952000e+08, 1.123284e-01, 8.030028e-01, -2.610746e+00, -1.124826e+00, 3.609343e-10, 3.001644e-10, 4.119474e+01, -1.146836e-01
5.990000e+08, 1.127112e-01, 8.029529e-01, -2.619364e+00, -1.131993e+00, 3.605385e-10, 3.001265e-10, 4.112638e+01, -1.134019e-01
6.028000e+08, 1.130879e-01, 8.029028e-01, -2.627972e+00, -1.139159e+00, 3.601510e-10, 3.000877e-10, 4.105891e+01, -1.120956e-01
6.066000e+08, 1.134586e-01, 8.028525e-01, -2.636571e+00, -1.146324e+00, 3.597716e-10, 3.000479e-10, 4.099234e+01, -1.107650e-01
6.104000e+08, 1.138231e-01, 8.028020e-01, -2.645161e+00, -1.153487e+00, 3.594002e-10, 3.000072e-10, 4.092670e+01, -1.094103e-01
6.142000e+08, 1.141814e-01, 8.027515e-01, -2.653742e+00, -1.160650e+00, 3.590366e-10, 2.999657e-10, 4.086199e+01, -1.080318e-01
6.180000e+08, 1.145334e-01, 8.027008e-01, -2.662314e+00, -1.167813e+00, 3.586807e-10, 2.999234e-10, 4.079823e+01, -1.066298e-01
6.218000e+08, 1.148792e-01, 8.026502e-01, -2.670878e+00, -1.174974e+00, 3.583324e-10, 2.998804e-10, 4.073543e+01, -1.052044e-01
6.256000e+08, 1.152186e-01, 8.025995e-01, -2.679434e+00, -1.182133e+00, 3.579915e-10, 2.998368e-10, 4.067360e+01, -1.037561e-01
6.294000e+08, 1.155515e-01, 8.025489e-01, -2.687981e+00, -1.189292e+00, 3.576579e-10, 2.997925e-10, 4.061276e+01, -1.022850e-01
6.332000e+08, 1.158780e-01, 8.024983e-01, -2.696521e+00, -1.196450e+00, 3.573314e-10, 2.997477e-10, 4.055292e+01, -1.007916e-01
6.370000e+08, 1.161980e-01, 8.024478e-01, -2.705052e+00, -1.203607e+00, 3.570120e-10, 2.997024e-10, 4.049409e+01, -9.927603e-02
6.408000e+08, 1.165115e-01, 8.023974e-01, -2.713576e+00, -1.210763e+00, 3.566995e-10, 2.996567e-10, 4.043628e+01, -9.773871e-02
6.446000e+08, 1.168183e-01, 8.023472e-01, -2.722093e+00, -1.217917e+00, 3.563937e-10, 2.996107e-10, 4.037950e+01, -9.617993e-02
6.484000e+08, 1.171185e-01, 8.022972e-01, -2.730602e+00, -1.225071e+00, 3.560946e-10, 2.995643e-10, 4.032377e+01, -9.460004e-02
6.522000e+08, 1.174120e-01, 8.022475e-01, -2.739105e+00, -1.232223e+00, 3.558020e-10, 2.995176e-10, 4.026910e+01, -9.299937e-02
6.560000e+08, 1.176988e-01, 8.021980e-01, -2.747600e+00, -1.239375e+00, 3.555158e-10, 2.994707e-10, 4.021549e+01, -9.137827e-02
6.598000e+08, 1.179787e-01, 8.021487e-01, -2.756088e+00, -1.246525e+00, 3.552359e-10, 2.994237e-10, 4.016297e+01, -8.973710e-02
6.636000e+08, 1.182519e-01, 8.020998e-01, -2.764570e+00, -1.253674e+00, 3.549622e-10, 2.993766e-10, 4.011153e+01, -8.807622e-02
6.674000e+08, 1.185182e-01, 8.020513e-01, -2.773045e+00, -1.260822e+00, 3.546945e-10, 2.993295e-10, 4.006119e+01, -8.639600e-02
6.712000e+08, 1.187776e-01, 8.020031e-01, -2.781513e+00, -1.267969e+00, 3.544328e-10, 2.992823e-10, 4.001196e+01, -8.469683e-02
6.750000e+08, 1.190300e-01, 8.019554e-01, -2.789976e+00, -1.275114e+00, 3.541769e-10, 2.992352e-10, 3.996385e+01, -8.297910e-02
6.788000e+08, 1.192755e-01, 8.019081e-01, -2.798432e+00, -1.282259e+00, 3.539267e-10, 2.991882e-10, 3.991687e+01, -8.124318e-02
6.826000e+08, 1.195140e-01, 8.018613e-01, -2.806883e+00, -1.289402e+00, 3.536821e-10, 2.991413e-10, 3.987103e+01, -7.948949e-02
6.864000e+08, 1.197454e-01, 8.018149e-01, -2.815327e+00, -1.296545e+00, 3.534431e-10, 2.990947e-10, 3.982633e+01, -7.771843e-02
6.902000e+08, 1.199697e-01, 8.017692e-01, -2.823766e+00, -1.303686e+00, 3.532095e-10, 2.990483e-10, 3.978279e+01, -7.593042e-02
6.940000e+08, 1.201870e-01, 8.017239e-01, -2.832199e+00, -1.310826e+00, 3.529812e-10, 2.990022e-10, 3.974041e+01, -7.412587e-02
6.978000e+08, 1.203970e-01, 8.016793e-01, -2.840627e+00, -1.317965e+00, 3.527581e-10, 2.989564e-10, 3.969921e+01, -7.230523e-02
7.016000e+08, 1.205999e-01, 8.016353e-01, -2.849050e+00, -1.325103e+00, 3.525402e-10, 2.989111e-10, 3.965919e+01, -7.046891e-02
7.054000e+08, 1.207956e-01, 8.015919e-01, -2.857467e+00, -1.332240e+00, 3.523272e-10, 2.988661e-10, 3.962035e+01, -6.861735e-02
7.092000e+08, 1.209841e-01, 8.015493e-01, -2.865879e+00, -1.339376e+00, 3.521193e-10, 2.988217e-10, 3.958272e+01, -6.675102e-02
7.130000e+08, 1.211652e-01, 8.015073e-01, -2.874286e+00, -1.346510e+00, 3.519161e-10, 2.987777e-10, 3.954628e+01, -6.487035e-02
7.168000e+08, 1.213391e-01, 8.014660e-01, -2.882689e+00, -1.353644e+00, 3.517178e-10, 2.987343e-10, 3.951106e+01, -6.297581e-02
7.206000e+08, 1.215057e-01, 8.014255e-01, -2.891086e+00, -1.360777e+00, 3.515241e-10, 2.986915e-10, 3.947705e+01, -6.106785e-02
7.244000e+08, 1.216650e-01, 8.013858e-01, -2.899479e+00, -1.367908e+00, 3.513350e-10, 2.986494e-10, 3.944427e+01, -5.914696e-02
7.282000e+08, 1.218168e-01, 8.013469e-01, -2.907868e+00, -1.375039e+00, 3.511504e-10, 2.986079e-10, 3.941272e+01, -5.721359e-02
7.320000e+08, 1.219613e-01, 8.013088e-01, -2.916252e+00, -1.382168e+00, 3.509703e-10, 2.985672e-10, 3.938241e+01, -5.526824e-02
7.358000e+08, 1.220984e-01, 8.012716e-01, -2.924632e+00, -1.389297e+00, 3.507946e-10, 2.985272e-10, 3.935334e+01, -5.331138e-02
7.396000e+08, 1.222280e-01, 8.012352e-01, -2.933007e+00, -1.396425e+00, 3.506231e-10, 2.984879e-10, 3.932551e+01, -5.134351e-02
7.434000e+08, 1.223501e-01, 8.011997e-01, -2.941379e+00, -1.403551e+00, 3.504558e-10, 2.984495e-10, 3.929894e+01, -4.936511e-02
7.472000e+08, 1.224648e-01, 8.011652e-01, -2.949747e+00, -1.410677e+00, 3.502927e-10, 2.984120e-10, 3.927363e+01, -4.737669e-02
7.510000e+08, 1.225720e-01, 8.011315e-01, -2.958110e+00, -1.417802e+00, 3.501336e-10, 2.983753e-10, 3.924958e+01, -4.537875e-02
7.548000e+08, 1.226717e-01, 8.010989e-01, -2.966470e+00, -1.424926e+00, 3.499786e-10, 2.983396e-10, 3.922680e+01, -4.337179e-02
7.586000e+08, 1.227639e-01, 8.010672e-01, -2.974826e+00, -1.432049e+00, 3.498275e-10, 2.983048e-10, 3.920529e+01, -4.135633e-02
7.624000e+08, 1.228485e-01, 8.010365e-01, -2.983179e+00, -1.439172e+00, 3.496802e-10, 2.982710e-10, 3.918506e+01, -3.933287e-02
7.662000e+08, 1.229255e-01, 8.010068e-01, -2.991528e+00, -1.446293e+00, 3.495368e-10, 2.982382e-10, 3.916611e+01, -3.730194e-02
7.700000e+08, 1.229950e-01, 8.009781e-01, -2.999873e+00, -1.453414e+00, 3.493971e-10, 2.982064e-10, 3.914844e+01, -3.526405e-02
7.738000e+08, 1.230569e-01, 8.009505e-01, -3.008215e+00, -1.460534e+00, 3.492611e-10, 2.981757e-10, 3.913206e+01, -3.321974e-02
7.776000e+08, 1.231112e-01, 8.009240e-01, -3.016554e+00, -1.467653e+00, 3.491288e-10, 2.981460e-10, 3.911696e+01, -3.116951e-02
7.814000e+08, 1.231578e-01, 8.008985e-01, -3.024890e+00, -1.474772e+00, 3.490000e-10, 2.981175e-10, 3.910317e+01, -2.911391e-02
7.852000e+08, 1.231969e-01, 8.008741e-01, -3.033223e+00, -1.481890e+00, 3.488747e-10, 2.980900e-10, 3.909066e+01, -2.705347e-02
