Frequency [Hz], |S00| [-], |S10| [-], Arg(S00) [-], Arg(S10) [-], Delay 0>0 [s], Delay 0>1 [s], |Z0| [Ohm] , Arg(Z0) [-]
2.000000e+08, 1.158779e-01, 1.013853e+00, -2.565675e+00, -5.724213e-01, 5.709309e-11, 4.570849e-10, 4.857365e+01, 1.272420e-01
2.038000e+08, 1.172961e-01, 1.013841e+00, -2.567038e+00, -5.833347e-01, 6.729423e-11, 4.574596e-10, 4.869770e+01, 1.285573e-01
2.076000e+08, 1.187133e-01, 1.013815e+00, -2.568645e+00, -5.942570e-01, 7.717302e-11, 4.577831e-10, 4.882376e+01, 1.298173e-01
2.114000e+08, 1.201285e-01, 1.013773e+00, -2.570488e+00, -6.051871e-01, 8.672641e-11, 4.580524e-10, 4.895174e+01, 1.310205e-01
2.152000e+08, 1.215406e-01, 1.013716e+00, -2.572558e+00, -6.161236e-01, 9.595221e-11, 4.582652e-10, 4.908156e+01, 1.321656e-01
2.190000e+08, 1.229487e-01, 1.013642e+00, -2.574849e+00, -6.270652e-01, 1.048490e-10, 4.584193e-10, 4.921316e+01, 1.332512e-01
2.228000e+08, 1.243517e-01, 1.013552e+00, -2.577353e+00, -6.380105e-01, 1.134162e-10, 4.585130e-10, 4.934643e+01, 1.342762e-01
2.266000e+08, 1.257488e-01, 1.013444e+00, -2.580061e+00, -6.489580e-01, 1.216540e-10, 4.585453e-10, 4.948129e+01, 1.352395e-01
2.304000e+08, 1.271390e-01, 1.013320e+00, -2.582965e+00, -6.599063e-01, 1.295632e-10, 4.585153e-10, 4.961765e+01, 1.361401e-01
2.342000e+08, 1.285214e-01, 1.013178e+00, -2.586059e+00, -6.708538e-01, 1.371453e-10, 4.584229e-10, 4.975542e+01, 1.369773e-01
2.380000e+08, 1.298952e-01, 1.013019e+00, -2.589333e+00, -6.817992e-01, 1.444028e-10, 4.582683e-10, 4.989448e+01, 1.377503e-01
2.418000e+08, 1.312595e-01, 1.012843e+00, -2.592781e+00, -6.927408e-01, 1.513385e-10, 4.580523e-10, 5.003475e+01, 1.384585e-01
2.456000e+08, 1.326135e-01, 1.012650e+00, -2.596394e+00, -7.036773e-01, 1.579562e-10, 4.577761e-10, 5.017611e+01, 1.391014e-01
2.494000e+08, 1.339564e-01, 1.012440e+00, -2.600166e+00, -7.146072e-01, 1.642601e-10, 4.574416e-10, 5.031848e+01, 1.396788e-01
2.532000e+08, 1.352877e-01, 1.012215e+00, -2.604088e+00, -7.255292e-01, 1.702552e-10, 4.570510e-10, 5.046173e+01, 1.401902e-01
2.570000e+08, 1.366065e-01, 1.011975e+00, -2.608153e+00, -7.364418e-01, 1.759471e-10, 4.566071e-10, 5.060578e+01, 1.406357e-01
2.608000e+08, 1.379123e-01, 1.011721e+00, -2.612354e+00, -7.473438e-01, 1.813419e-10, 4.561130e-10, 5.075050e+01, 1.410152e-01
2.646000e+08, 1.392044e-01, 1.011454e+00, -2.616683e+00, -7.582340e-01, 1.864465e-10, 4.555724e-10, 5.089580e+01, 1.413288e-01
2.684000e+08, 1.404823e-01, 1.011174e+00, -2.621135e+00, -7.691113e-01, 1.912680e-10, 4.549893e-10, 5.104157e+01, 1.415766e-01
2.722000e+08, 1.417455e-01, 1.010883e+00, -2.625702e+00, -7.799746e-01, 1.958143e-10, 4.543680e-10, 5.118770e+01, 1.417591e-01
2.760000e+08, 1.429936e-01, 1.010583e+00, -2.630377e+00, -7.908232e-01, 2.000938e-10, 4.537133e-10, 5.133411e+01, 1.418767e-01
2.798000e+08, 1.442260e-01, 1.010274e+00, -2.635154e+00, -8.016561e-01, 2.041153e-10, 4.530302e-10, 5.148067e+01, 1.419297e-01
2.836000e+08, 1.454425e-01, 1.009957e+00, -2.640028e+00, -8.124727e-01, 2.078878e-10, 4.523237e-10, 5.162731e+01, 1.419189e-01
2.874000e+08, 1.466428e-01, 1.009635e+00, -2.644991e+00, -8.232724e-01, 2.114211e-10, 4.515992e-10, 5.177391e+01, 1.418449e-01
2.912000e+08, 1.478264e-01, 1.009308e+00, -2.650039e+00, -8.340548e-01, 2.147250e-10, 4.508623e-10, 5.192039e+01, 1.417083e-01
2.950000e+08, 1.489933e-01, 1.008979e+00, -2.655166e+00, -8.448197e-01, 2.178097e-10, 4.501185e-10, 5.206666e+01, 1.415101e-01
2.988000e+08, 1.501431e-01, 1.008648e+00, -2.660367e+00, -8.555667e-01, 2.206857e-10, 4.493732e-10, 5.221263e+01, 1.412510e-01
3.026000e+08, 1.512757e-01, 1.008317e+00, -2.665636e+00, -8.662960e-01, 2.233637e-10, 4.486322e-10, 5.235822e+01, 1.409319e-01
3.064000e+08, 1.523910e-01, 1.007987e+00, -2.670969e+00, -8.770076e-01, 2.258545e-10, 4.479007e-10, 5.250334e+01, 1.405539e-01
3.102000e+08, 1.534888e-01, 1.007661e+00, -2.676361e+00, -8.877017e-01, 2.281690e-10, 4.471841e-10, 5.264793e+01, 1.401178e-01
3.140000e+08, 1.545692e-01, 1.007338e+00, -2.681809e+00, -8.983787e-01, 2.303182e-10, 4.464875e-10, 5.279190e+01, 1.396247e-01
3.178000e+08, 1.556320e-01, 1.007022e+00, -2.687308e+00, -9.090391e-01, 2.323130e-10, 4.458158e-10, 5.293519e+01, 1.390756e-01
3.216000e+08, 1.566773e-01, 1.006712e+00, -2.692855e+00, -9.196835e-01, 2.341643e-10, 4.451736e-10, 5.307773e+01, 1.384714e-01
3.254000e+08, 1.577051e-01, 1.006411e+00, -2.698446e+00, -9.303125e-01, 2.358830e-10, 4.445651e-10, 5.321946e+01, 1.378133e-01
3.292000e+08, 1.587155e-01, 1.006119e+00, -2.704078e+00, -9.409270e-01, 2.374797e-10, 4.439942e-10, 5.336032e+01, 1.371022e-01
3.330000e+08, 1.597084e-01, 1.005837e+00, -2.709748e+00, -9.515278e-01, 2.389649e-10, 4.434646e-10, 5.350026e+01, 1.363391e-01
3.368000e+08, 1.606840e-01, 1.005567e+00, -2.715453e+00, -9.621160e-01, 2.403489e-10, 4.429792e-10, 5.363922e+01, 1.355250e-01
3.406000e+08, 1.616423e-01, 1.005308e+00, -2.721192e+00, -9.726926e-01, 2.416415e-10, 4.425408e-10, 5.377716e+01, 1.346609e-01
3.444000e+08, 1.625835e-01, 1.005063e+00, -2.726961e+00, -9.832588e-01, 2.428523e-10, 4.421517e-10, 5.391403e+01, 1.337477e-01
3.482000e+08, 1.635077e-01, 1.004832e+00, -2.732760e+00, -9.938156e-01, 2.439907e-10, 4.418135e-10, 5.404978e+01, 1.327863e-01
3.520000e+08, 1.644150e-01, 1.004614e+00, -2.738585e+00, -1.004364e+00, 2.450655e-10, 4.415275e-10, 5.418438e+01, 1.317776e-01
3.558000e+08, 1.653055e-01, 1.004411e+00, -2.744437e+00, -1.014906e+00, 2.460851e-10, 4.412946e-10, 5.431778e+01, 1.307223e-01
3.596000e+08, 1.661794e-01, 1.004223e+00, -2.750312e+00, -1.025443e+00, 2.470574e-10, 4.411150e-10, 5.444995e+01, 1.296214e-01
3.634000e+08, 1.670367e-01, 1.004050e+00, -2.756211e+00, -1.035975e+00, 2.479899e-10, 4.409885e-10, 5.458084e+01, 1.284754e-01
3.672000e+08, 1.678776e-01, 1.003892e+00, -2.762132e+00, -1.046504e+00, 2.488896e-10, 4.409147e-10, 5.471043e+01, 1.272852e-01
3.710000e+08, 1.687023e-01, 1.003748e+00, -2.768074e+00, -1.057031e+00, 2.497629e-10, 4.408922e-10, 5.483867e+01, 1.260514e-01
3.748000e+08, 1.695107e-01, 1.003620e+00, -2.774038e+00, -1.067558e+00, 2.506156e-10, 4.409197e-10, 5.496554e+01, 1.247745e-01
3.786000e+08, 1.703030e-01, 1.003506e+00, -2.780022e+00, -1.078086e+00, 2.514531e-10, 4.409952e-10, 5.509100e+01, 1.234552e-01
3.824000e+08, 1.710792e-01, 1.003405e+00, -2.786025e+00, -1.088615e+00, 2.522802e-10, 4.411163e-10, 5.521502e+01, 1.220940e-01
3.862000e+08, 1.718396e-01, 1.003319e+00, -2.792049e+00, -1.099147e+00, 2.531011e-10, 4.412803e-10, 5.533755e+01, 1.206914e-01
3.900000e+08, 1.725840e-01, 1.003245e+00, -2.798092e+00, -1.109683e+00, 2.539194e-10, 4.414843e-10, 5.545856e+01, 1.192479e-01
3.938000e+08, 1.733125e-01, 1.003184e+00, -2.804154e+00, -1.120224e+00, 2.547383e-10, 4.417248e-10, 5.557801e+01, 1.177638e-01
3.976000e+08, 1.740252e-01, 1.003134e+00, -2.810237e+00, -1.130771e+00, 2.555602e-10, 4.419984e-10, 5.569588e+01, 1.162396e-01
4.014000e+08, 1.747221e-01, 1.003095e+00, -2.816338e+00, -1.141324e+00, 2.563871e-10, 4.423010e-10, 5.581210e+01, 1.146757e-01
4.052000e+08, 1.754031e-01, 1.003065e+00, -2.822460e+00, -1.151884e+00, 2.572206e-10, 4.426289e-10, 5.592665e+01, 1.130724e-01
4.090000e+08, 1.760682e-01, 1.003045e+00, -2.828601e+00, -1.162452e+00, 2.580616e-10, 4.429776e-10, 5.603948e+01, 1.114301e-01
4.128000e+08, 1.767174e-01, 1.003032e+00, -2.834763e+00, -1.173029e+00, 2.589107e-10, 4.433431e-10, 5.615055e+01, 1.097492e-01
4.166000e+08, 1.773505e-01, 1.003026e+00, -2.840945e+00, -1.183614e+00, 2.597677e-10, 4.437209e-10, 5.625980e+01, 1.080299e-01
4.204000e+08, 1.779676e-01, 1.003026e+00, -2.847147e+00, -1.194209e+00, 2.606323e-10, 4.441066e-10, 5.636718e+01, 1.062725e-01
4.242000e+08, 1.785684e-01, 1.003030e+00, -2.853370e+00, -1.204812e+00, 2.615038e-10, 4.444958e-10, 5.647265e+01, 1.044776e-01
4.280000e+08, 1.791529e-01, 1.003038e+00, -2.859613e+00, -1.215425e+00, 2.623808e-10, 4.448843e-10, 5.657614e+01, 1.026453e-01
4.318000e+08, 1.797210e-01, 1.003049e+00, -2.865878e+00, -1.226047e+00, 2.632619e-10, 4.452678e-10, 5.667761e+01, 1.007761e-01
4.356000e+08, 1.802724e-01, 1.003062e+00, -2.872164e+00, -1.236678e+00, 2.641452e-10, 4.456421e-10, 5.677698e+01, 9.887039e-02
4.394000e+08, 1.808070e-01, 1.003075e+00, -2.878470e+00, -1.247319e+00, 2.650286e-10, 4.460033e-10, 5.687421e+01, 9.692856e-02
4.432000e+08, 1.813247e-01, 1.003088e+00, -2.884798e+00, -1.257967e+00, 2.659095e-10, 4.463478e-10, 5.696923e+01, 9.495109e-02
4.470000e+08, 1.818252e-01, 1.003100e+00, -2.891147e+00, -1.268624e+00, 2.667855e-10, 4.466719e-10, 5.706197e+01, 9.293847e-02
4.508000e+08, 1.823084e-01, 1.003110e+00, -2.897517e+00, -1.279289e+00, 2.676538e-10, 4.469723e-10, 5.715237e+01, 9.089122e-02
4.546000e+08, 1.827739e-01, 1.003117e+00, -2.903907e+00, -1.289961e+00, 2.685114e-10, 4.472463e-10, 5.724036e+01, 8.880994e-02
4.584000e+08, 1.832217e-01, 1.003121e+00, -2.910318e+00, -1.300640e+00, 2.693553e-10, 4.474909e-10, 5.732587e+01, 8.669524e-02
4.622000e+08, 1.836515e-01, 1.003120e+00, -2.916750e+00, -1.311324e+00, 2.701823e-10, 4.477041e-10, 5.740883e+01, 8.454780e-02
4.660000e+08, 1.840629e-01, 1.003114e+00, -2.923201e+00, -1.322013e+00, 2.709893e-10, 4.478837e-10, 5.748918e+01, 8.236835e-02
4.698000e+08, 1.844560e-01, 1.003104e+00, -2.929671e+00, -1.332707e+00, 2.717732e-10, 4.480282e-10, 5.756684e+01, 8.015767e-02
4.736000e+08, 1.848303e-01, 1.003087e+00, -2.936160e+00, -1.343404e+00, 2.725306e-10, 4.481364e-10, 5.764174e+01, 7.791661e-02
4.774000e+08, 1.851856e-01, 1.003065e+00, -2.942667e+00, -1.354104e+00, 2.732586e-10, 4.482075e-10, 5.771381e+01, 7.564607e-02
4.812000e+08, 1.855218e-01, 1.003037e+00, -2.949191e+00, -1.364806e+00, 2.739541e-10, 4.482410e-10, 5.778299e+01, 7.334699e-02
4.850000e+08, 1.858386e-01, 1.003002e+00, -2.955732e+00, -1.375508e+00, 2.746140e-10, 4.482369e-10, 5.784920e+01, 7.102040e-02
4.888000e+08, 1.861357e-01, 1.002962e+00, -2.962289e+00, -1.386210e+00, 2.752356e-10, 4.481956e-10, 5.791238e+01, 6.866738e-02
4.926000e+08, 1.864130e-01, 1.002915e+00, -2.968860e+00, -1.396911e+00, 2.758161e-10, 4.481178e-10, 5.797247e+01, 6.628904e-02
4.964000e+08, 1.866702e-01, 1.002862e+00, -2.975446e+00, -1.407610e+00, 2.763529e-10, 4.480045e-10, 5.802939e+01, 6.388659e-02
5.002000e+08, 1.869072e-01, 1.002803e+00, -2.982044e+00, -1.418307e+00, 2.768437e-10, 4.478574e-10, 5.808309e+01, 6.146125e-02
5.040000e+08, 1.871237e-01, 1.002740e+00, -2.988654e+00, -1.429000e+00, 2.772862e-10, 4.476781e-10, 5.813351e+01, 5.901433e-02
5.078000e+08, 1.873197e-01, 1.002671e+00, -2.995274e+00, -1.439689e+00, 2.776784e-10, 4.474688e-10, 5.818059e+01, 5.654717e-02
5.116000e+08, 1.874948e-01, 1.002597e+00, -3.001904e+00, -1.450373e+00, 2.780185e-10, 4.472319e-10, 5.822429e+01, 5.406116e-02
5.154000e+08, 1.876490e-01, 1.002520e+00, -3.008542e+00, -1.461051e+00, 2.783047e-10, 4.469700e-10, 5.826455e+01, 5.155773e-02
5.192000e+08, 1.877820e-01, 1.002440e+00, -3.015187e+00, -1.471723e+00, 2.785357e-10, 4.466862e-10, 5.830132e+01, 4.903835e-02
5.230000e+08, 1.878939e-01, 1.002357e+00, -3.021837e+00, -1.482388e+00, 2.787102e-10, 4.463834e-10, 5.833457e+01, 4.650455e-02
5.268000e+08, 1.879845e-01, 1.002272e+00, -3.028492e+00, -1.493046e+00, 2.788272e-10, 4.460651e-10, 5.836425e+01, 4.395786e-02
5.306000e+08, 1.880536e-01, 1.002186e+00, -3.035149e+00, -1.503696e+00, 2.788858e-10, 4.457345e-10, 5.839033e+01, 4.139986e-02
5.344000e+08, 1.881012e-01, 1.002100e+00, -3.041808e+00, -1.514339e+00, 2.788855e-10, 4.453952e-10, 5.841278e+01, 3.883214e-02
5.382000e+08, 1.881272e-01, 1.002015e+00, -3.048467e+00, -1.524973e+00, 2.788258e-10, 4.450508e-10, 5.843157e+01, 3.625633e-02
5.420000e+08, 1.881316e-01, 1.001931e+00, -3.055124e+00, -1.535599e+00, 2.787064e-10, 4.447049e-10, 5.844669e+01, 3.367407e-02
5.458000e+08, 1.881143e-01, 1.001850e+00, -3.061778e+00, -1.546217e+00, 2.785272e-10, 4.443611e-10, 5.845811e+01, 3.108700e-02
5.496000e+08, 1.880753e-01, 1.001771e+00, -3.068428e+00, -1.556826e+00, 2.782883e-10, 4.440230e-10, 5.846583e+01, 2.849679e-02
5.534000e+08, 1.880145e-01, 1.001697e+00, -3.075073e+00, -1.567428e+00, 2.779899e-10, 4.436939e-10, 5.846982e+01, 2.590509e-02
5.572000e+08, 1.879321e-01, 1.001628e+00, -3.081710e+00, -1.578022e+00, 2.776324e-10, 4.433773e-10, 5.847010e+01, 2.331357e-02
5.610000e+08, 1.878279e-01, 1.001564e+00, -3.088339e+00, -1.588608e+00, 2.772162e-10, 4.430763e-10, 5.846666e+01, 2.072389e-02
5.648000e+08, 1.877021e-01, 1.001507e+00, -3.094958e+00, -1.599187e+00, 2.767419e-10, 4.427940e-10, 5.845950e+01, 1.813770e-02
5.686000e+08, 1.875546e-01, 1.001457e+00, -3.101565e+00, -1.609759e+00, 2.762103e-10, 4.425333e-10, 5.844863e+01, 1.555665e-02
5.724000e+08, 1.873856e-01, 1.001415e+00, -3.108160e+00, -1.620325e+00, 2.756219e-10, 4.422967e-10, 5.843407e+01, 1.298237e-02
5.762000e+08, 1.871950e-01, 1.001381e+00, -3.114741e+00, -1.630885e+00, 2.749778e-10, 4.420865e-10, 5.841583e+01, 1.041648e-02
5.800000e+08, 1.869830e-01, 1.001356e+00, -3.121306e+00, -1.641440e+00, 2.742787e-10, 4.419050e-10, 5.839393e+01, 7.860563e-03
5.838000e+08, 1.867496e-01, 1.001341e+00, -3.127855e+00, -1.651991e+00, 2.735255e-10, 4.417538e-10, 5.836840e+01, 5.316203e-03
5.876000e+08, 1.864949e-01, 1.001336e+00, -3.134386e+00, -1.662539e+00, 2.727192e-10, 4.416345e-10, 5.833926e+01, 2.784948e-03
5.914000e+08, 1.862191e-01, 1.001341e+00, -3.140897e+00, -1.673083e+00, 2.718607e-10, 4.415483e-10, 5.830655e+01, 2.683249e-04
5.952000e+08, 1.859221e-01, 1.001357e+00, 3.135797e+00, -1.683626e+00, 2.709509e-10, 4.414960e-10, 5.827030e+01, -2.232169e-03
5.990000e+08, 1.856043e-01, 1.001384e+00, 3.129328e+00, -1.694167e+00, 2.699907e-10, 4.414783e-10, 5.823054e+01, -4.715063e-03
6.028000e+08, 1.852656e-01, 1.001422e+00, 3.122882e+00, -1.704708e+00, 2.689809e-10, 4.414953e-10, 5.818732e+01, -7.178918e-03
6.066000e+08, 1.849061e-01, 1.001471e+00, 3.116459e+00, -1.715249e+00, 2.679223e-10, 4.415471e-10, 5.814067e+01, -9.622325e-03
6.104000e+08, 1.845261e-01, 1.001531e+00, 3.110062e+00, -1.725791e+00, 2.668157e-10, 4.416332e-10, 5.809066e+01, -1.204391e-02
6.142000e+08, 1.841256e-01, 1.001602e+00, 3.103692e+00, -1.736336e+00, 2.656617e-10, 4.417530e-10, 5.803731e+01, -1.444232e-02
6.180000e+08, 1.837049e-01, 1.001684e+00, 3.097349e+00, -1.746883e+00, 2.644609e-10, 4.419056e-10, 5.798068e+01, -1.681624e-02
6.218000e+08, 1.832639e-01, 1.001777e+00, 3.091035e+00, -1.757434e+00, 2.632138e-10, 4.420896e-10, 5.792083e+01, -1.916440e-02
6.256000e+08, 1.828029e-01, 1.001879e+00, 3.084750e+00, -1.767989e+00, 2.619207e-10, 4.423036e-10, 5.785781e+01, -2.148555e-02
6.294000e+08, 1.823220e-01, 1.001992e+00, 3.078496e+00, -1.778550e+00, 2.605820e-10, 4.425459e-10, 5.779166e+01, -2.377847e-02
6.332000e+08, 1.818214e-01, 1.002114e+00, 3.072275e+00, -1.789116e+00, 2.591977e-10, 4.428145e-10, 5.772245e+01, -2.604198e-02
6.370000e+08, 1.813011e-01, 1.002246e+00, 3.066086e+00, -1.799689e+00, 2.577679e-10, 4.431074e-10, 5.765024e+01, -2.827492e-02
6.408000e+08, 1.807614e-01, 1.002385e+00, 3.059932e+00, -1.810269e+00, 2.562925e-10, 4.434221e-10, 5.757508e+01, -3.047618e-02
6.446000e+08, 1.802024e-01, 1.002533e+00, 3.053812e+00, -1.820856e+00, 2.547712e-10, 4.437562e-10, 5.749704e+01, -3.264465e-02
6.484000e+08, 1.796242e-01, 1.002688e+00, 3.047729e+00, -1.831451e+00, 2.532036e-10, 4.441072e-10, 5.741618e+01, -3.477928e-02
6.522000e+08, 1.790270e-01, 1.002850e+00, 3.041684e+00, -1.842055e+00, 2.515892e-10, 4.444724e-10, 5.733255e+01, -3.687903e-02
6.560000e+08, 1.784109e-01, 1.003017e+00, 3.035677e+00, -1.852667e+00, 2.499272e-10, 4.448490e-10, 5.724623e+01, -3.894290e-02
6.598000e+08, 1.777761e-01, 1.003190e+00, 3.029710e+00, -1.863288e+00, 2.482169e-10, 4.452342e-10, 5.715727e+01, -4.096990e-02
6.636000e+08, 1.771226e-01, 1.003367e+00, 3.023783e+00, -1.873918e+00, 2.464571e-10, 4.456253e-10, 5.706574e+01, -4.295908e-02
6.674000e+08, 1.764508e-01, 1.003549e+00, 3.017899e+00, -1.884558e+00, 2.446469e-10, 4.460195e-10, 5.697170e+01, -4.490950e-02
6.712000e+08, 1.757606e-01, 1.003733e+00, 3.012058e+00, -1.895207e+00, 2.427847e-10, 4.464140e-10, 5.687523e+01, -4.682027e-02
6.750000e+08, 1.750523e-01, 1.003920e+00, 3.006261e+00, -1.905866e+00, 2.408692e-10, 4.468062e-10, 5.677638e+01, -4.869050e-02
6.788000e+08, 1.743259e-01, 1.004109e+00, 3.000510e+00, -1.916534e+00, 2.388987e-10, 4.471934e-10, 5.667522e+01, -5.051932e-02
6.826000e+08, 1.735817e-01, 1.004298e+00, 2.994806e+00, -1.927211e+00, 2.368715e-10, 4.475731e-10, 5.657182e+01, -5.230589e-02
6.864000e+08, 1.728197e-01, 1.004489e+00, 2.989150e+00, -1.937898e+00, 2.347855e-10, 4.479431e-10, 5.646625e+01, -5.404941e-02
6.902000e+08, 1.720401e-01, 1.004678e+00, 2.983545e+00, -1.948593e+00, 2.326386e-10, 4.483011e-10, 5.635857e+01, -5.574906e-02
6.940000e+08, 1.712431e-01, 1.004867e+00, 2.977990e+00, -1.959296e+00, 2.304285e-10, 4.486450e-10, 5.624885e+01, -5.740406e-02
6.978000e+08, 1.704287e-01, 1.005055e+00, 2.972488e+00, -1.970008e+00, 2.281529e-10, 4.489731e-10, 5.613716e+01, -5.901366e-02
7.016000e+08, 1.695972e-01, 1.005241e+00, 2.967041e+00, -1.980728e+00, 2.258090e-10, 4.492837e-10, 5.602356e+01, -6.057711e-02
7.054000e+08, 1.687487e-01, 1.005424e+00, 2.961649e+00, -1.991455e+00, 2.233942e-10, 4.495753e-10, 5.590813e+01, -6.209368e-02
7.092000e+08, 1.678832e-01, 1.005604e+00, 2.956316e+00, -2.002189e+00, 2.209055e-10, 4.498468e-10, 5.579093e+01, -6.356267e-02
7.130000e+08, 1.670011e-01, 1.005782e+00, 2.951041e+00, -2.012930e+00, 2.183397e-10, 4.500971e-10, 5.567203e+01, -6.498338e-02
7.168000e+08, 1.661023e-01, 1.005956e+00, 2.945828e+00, -2.023676e+00, 2.156936e-10, 4.503255e-10, 5.555149e+01, -6.635514e-02
7.206000e+08, 1.651871e-01, 1.006126e+00, 2.940678e+00, -2.034429e+00, 2.129638e-10, 4.505315e-10, 5.542940e+01, -6.767728e-02
7.244000e+08, 1.642557e-01, 1.006292e+00, 2.935594e+00, -2.045185e+00, 2.101466e-10, 4.507148e-10, 5.530580e+01, -6.894918e-02
7.282000e+08, 1.633081e-01, 1.006454e+00, 2.930576e+00, -2.055947e+00, 2.072383e-10, 4.508753e-10, 5.518078e+01, -7.017019e-02
7.320000e+08, 1.623446e-01, 1.006612e+00, 2.925628e+00, -2.066712e+00, 2.042349e-10, 4.510133e-10, 5.505441e+01, -7.133971e-02
7.358000e+08, 1.613653e-01, 1.006766e+00, 2.920752e+00, -2.077480e+00, 2.011323e-10, 4.511292e-10, 5.492674e+01, -7.245716e-02
7.396000e+08, 1.603704e-01, 1.006915e+00, 2.915949e+00, -2.088252e+00, 1.979260e-10, 4.512236e-10, 5.479785e+01, -7.352194e-02
7.434000e+08, 1.593600e-01, 1.007061e+00, 2.911224e+00, -2.099025e+00, 1.946116e-10, 4.512973e-10, 5.466782e+01, -7.453350e-02
7.472000e+08, 1.583344e-01, 1.007202e+00, 2.906577e+00, -2.109800e+00, 1.911843e-10, 4.513514e-10, 5.453670e+01, -7.549130e-02
7.510000e+08, 1.572937e-01, 1.007340e+00, 2.902012e+00, -2.120577e+00, 1.876391e-10, 4.513871e-10, 5.440457e+01, -7.639481e-02
7.548000e+08, 1.562381e-01, 1.007474e+00, 2.897532e+00, -2.131354e+00, 1.839709e-10, 4.514057e-10, 5.427149e+01, -7.724352e-02
7.586000e+08, 1.551679e-01, 1.007604e+00, 2.893140e+00, -2.142132e+00, 1.801742e-10, 4.514089e-10, 5.413754e+01, -7.803694e-02
7.624000e+08, 1.540832e-01, 1.007732e+00, 2.888838e+00, -2.152910e+00, 1.762435e-10, 4.513982e-10, 5.400278e+01, -7.877459e-02
7.662000e+08, 1.529843e-01, 1.007857e+00, 2.884630e+00, -2.163687e+00, 1.721728e-10, 4.513755e-10, 5.386729e+01, -7.945601e-02
7.700000e+08, 1.518713e-01, 1.007979e+00, 2.880519e+00, -2.174465e+00, 1.679560e-10, 4.513426e-10, 5.373112e+01, -8.008077e-02
7.738000e+08, 1.507445e-01, 1.008100e+00, 2.876509e+00, -2.185241e+00, 1.635868e-10, 4.513015e-10, 5.359436e+01, -8.064844e-02
7.776000e+08, 1.496042e-01, 1.008219e+00, 2.872603e+00, -2.196016e+00, 1.590583e-10, 4.512542e-10, 5.345707e+01, -8.115862e-02
7.814000e+08, 1.484505e-01, 1.008337e+00, 2.868805e+00, -2.206790e+00, 1.543637e-10, 4.512028e-10, 5.331931e+01, -8.161092e-02
7.852000e+08, 1.472839e-01, 1.008455e+00, 2.865120e+00, -2.217563e+00, 1.494957e-10, 4.511492e-10, 5.318116e+01, -8.200499e-02
7.890000e+08, 1.461044e-01, 1.008572e+00, 2.861550e+00, -2.228335e+00, 1.444467e-10, 4.510956e-10, 5.304268e+01, -8.234048e-02
