Frequency [Hz], |S00| [-], |S10| [-], Arg(S00) [-], Arg(S10) [-], Delay 0>0 [s], Delay 0>1 [s], |Z0| [Ohm] , Arg(Z0) [-]
2.000000e+08, 1.017886e-01, 7.505624e-01, 2.937971e+00, -4.213712e-01, 5.702754e-11, 3.456961e-10, 3.275088e+01, 4.157393e-02
2.038000e+08, 1.014895e-01, 7.505506e-01, 2.936609e+00, -4.296251e-01, 5.791909e-11, 3.454016e-10, 3.277213e+01, 4.172237e-02
2.076000e+08, 1.011862e-01, 7.505393e-01, 2.935226e+00, -4.378719e-01, 5.869631e-11, 3.451196e-10, 3.279370e+01, 4.187153e-02
2.114000e+08, 1.008784e-01, 7.505283e-01, 2.933825e+00, -4.461120e-01, 5.936491e-11, 3.448493e-10, 3.281559e+01, 4.202077e-02
2.152000e+08, 1.005663e-01, 7.505177e-01, 2.932407e+00, -4.543457e-01, 5.993000e-11, 3.445900e-10, 3.283781e+01, 4.216951e-02
2.190000e+08, 1.002498e-01, 7.505075e-01, 2.930977e+00, -4.625731e-01, 6.039624e-11, 3.443411e-10, 3.286034e+01, 4.231721e-02
2.228000e+08, 9.992895e-02, 7.504978e-01, 2.929534e+00, -4.707947e-01, 6.076779e-11, 3.441020e-10, 3.288318e+01, 4.246332e-02
2.266000e+08, 9.960375e-02, 7.504886e-01, 2.928084e+00, -4.790105e-01, 6.104843e-11, 3.438721e-10, 3.290634e+01, 4.260735e-02
2.304000e+08, 9.927421e-02, 7.504798e-01, 2.926626e+00, -4.872208e-01, 6.124156e-11, 3.436510e-10, 3.292979e+01, 4.274883e-02
2.342000e+08, 9.894036e-02, 7.504716e-01, 2.925164e+00, -4.954259e-01, 6.135022e-11, 3.434382e-10, 3.295355e+01, 4.288731e-02
2.380000e+08, 9.860219e-02, 7.504639e-01, 2.923699e+00, -5.036258e-01, 6.137716e-11, 3.432334e-10, 3.297761e+01, 4.302235e-02
2.418000e+08, 9.825974e-02, 7.504568e-01, 2.922234e+00, -5.118209e-01, 6.132485e-11, 3.430361e-10, 3.300196e+01, 4.315355e-02
2.456000e+08, 9.791303e-02, 7.504502e-01, 2.920769e+00, -5.200113e-01, 6.119549e-11, 3.428460e-10, 3.302661e+01, 4.328052e-02
2.494000e+08, 9.756207e-02, 7.504442e-01, 2.919308e+00, -5.281971e-01, 6.099103e-11, 3.426628e-10, 3.305154e+01, 4.340287e-02
2.532000e+08, 9.720690e-02, 7.504388e-01, 2.917852e+00, -5.363785e-01, 6.071322e-11, 3.424862e-10, 3.307675e+01, 4.352025e-02
2.570000e+08, 9.684753e-02, 7.504341e-01, 2.916402e+00, -5.445558e-01, 6.036360e-11, 3.423160e-10, 3.310224e+01, 4.363232e-02
2.608000e+08, 9.648401e-02, 7.504299e-01, 2.914961e+00, -5.527289e-01, 5.994351e-11, 3.421518e-10, 3.312800e+01, 4.373875e-02
2.646000e+08, 9.611635e-02, 7.504264e-01, 2.913530e+00, -5.608982e-01, 5.945413e-11, 3.419936e-10, 3.315403e+01, 4.383921e-02
2.684000e+08, 9.574459e-02, 7.504236e-01, 2.912110e+00, -5.690637e-01, 5.889648e-11, 3.418409e-10, 3.318033e+01, 4.393340e-02
2.722000e+08, 9.536876e-02, 7.504214e-01, 2.910704e+00, -5.772255e-01, 5.827141e-11, 3.416938e-10, 3.320688e+01, 4.402104e-02
2.760000e+08, 9.498890e-02, 7.504200e-01, 2.909313e+00, -5.853838e-01, 5.757964e-11, 3.415519e-10, 3.323369e+01, 4.410183e-02
2.798000e+08, 9.460504e-02, 7.504192e-01, 2.907938e+00, -5.935388e-01, 5.682177e-11, 3.414151e-10, 3.326076e+01, 4.417550e-02
2.836000e+08, 9.421721e-02, 7.504190e-01, 2.906581e+00, -6.016904e-01, 5.599825e-11, 3.412832e-10, 3.328807e+01, 4.424179e-02
2.874000e+08, 9.382546e-02, 7.504196e-01, 2.905244e+00, -6.098389e-01, 5.510942e-11, 3.411561e-10, 3.331562e+01, 4.430045e-02
2.912000e+08, 9.342983e-02, 7.504210e-01, 2.903929e+00, -6.179844e-01, 5.415553e-11, 3.410337e-10, 3.334340e+01, 4.435122e-02
2.950000e+08, 9.303035e-02, 7.504230e-01, 2.902636e+00, -6.261270e-01, 5.313670e-11, 3.409158e-10, 3.337142e+01, 4.439388e-02
2.988000e+08, 9.262706e-02, 7.504258e-01, 2.901367e+00, -6.342667e-01, 5.205296e-11, 3.408022e-10, 3.339967e+01, 4.442820e-02
3.026000e+08, 9.222002e-02, 7.504293e-01, 2.900124e+00, -6.424037e-01, 5.090425e-11, 3.406930e-10, 3.342813e+01, 4.445394e-02
3.064000e+08, 9.180927e-02, 7.504335e-01, 2.898909e+00, -6.505382e-01, 4.969040e-11, 3.405879e-10, 3.345682e+01, 4.447091e-02
3.102000e+08, 9.139484e-02, 7.504384e-01, 2.897722e+00, -6.586701e-01, 4.841118e-11, 3.404868e-10, 3.348571e+01, 4.447888e-02
3.140000e+08, 9.097680e-02, 7.504442e-01, 2.896566e+00, -6.667996e-01, 4.706625e-11, 3.403897e-10, 3.351481e+01, 4.447765e-02
3.178000e+08, 9.055518e-02, 7.504506e-01, 2.895443e+00, -6.749267e-01, 4.565522e-11, 3.402965e-10, 3.354411e+01, 4.446704e-02
3.216000e+08, 9.013003e-02, 7.504578e-01, 2.894353e+00, -6.830517e-01, 4.417759e-11, 3.402070e-10, 3.357360e+01, 4.444686e-02
3.254000e+08, 8.970142e-02, 7.504657e-01, 2.893298e+00, -6.911745e-01, 4.263282e-11, 3.401212e-10, 3.360329e+01, 4.441691e-02
3.292000e+08, 8.926938e-02, 7.504744e-01, 2.892280e+00, -6.992953e-01, 4.102026e-11, 3.400390e-10, 3.363315e+01, 4.437703e-02
3.330000e+08, 8.883398e-02, 7.504839e-01, 2.891300e+00, -7.074141e-01, 3.933922e-11, 3.399603e-10, 3.366320e+01, 4.432703e-02
3.368000e+08, 8.839527e-02, 7.504940e-01, 2.890361e+00, -7.155310e-01, 3.758893e-11, 3.398850e-10, 3.369342e+01, 4.426677e-02
3.406000e+08, 8.795330e-02, 7.505049e-01, 2.889464e+00, -7.236461e-01, 3.576855e-11, 3.398131e-10, 3.372380e+01, 4.419606e-02
3.444000e+08, 8.750814e-02, 7.505166e-01, 2.888610e+00, -7.317596e-01, 3.387719e-11, 3.397444e-10, 3.375435e+01, 4.411476e-02
3.482000e+08, 8.705985e-02, 7.505289e-01, 2.887801e+00, -7.398713e-01, 3.191387e-11, 3.396790e-10, 3.378504e+01, 4.402272e-02
3.520000e+08, 8.660848e-02, 7.505420e-01, 2.887039e+00, -7.479815e-01, 2.987757e-11, 3.396167e-10, 3.381589e+01, 4.391978e-02
3.558000e+08, 8.615410e-02, 7.505559e-01, 2.886326e+00, -7.560903e-01, 2.776721e-11, 3.395575e-10, 3.384688e+01, 4.380581e-02
3.596000e+08, 8.569677e-02, 7.505704e-01, 2.885663e+00, -7.641976e-01, 2.558163e-11, 3.395012e-10, 3.387801e+01, 4.368067e-02
3.634000e+08, 8.523656e-02, 7.505856e-01, 2.885052e+00, -7.723035e-01, 2.331963e-11, 3.394480e-10, 3.390927e+01, 4.354422e-02
3.672000e+08, 8.477354e-02, 7.506016e-01, 2.884495e+00, -7.804082e-01, 2.097994e-11, 3.393976e-10, 3.394065e+01, 4.339634e-02
3.710000e+08, 8.430778e-02, 7.506182e-01, 2.883994e+00, -7.885117e-01, 1.856125e-11, 3.393500e-10, 3.397215e+01, 4.323690e-02
3.748000e+08, 8.383935e-02, 7.506355e-01, 2.883551e+00, -7.966141e-01, 1.606217e-11, 3.393052e-10, 3.400376e+01, 4.306579e-02
3.786000e+08, 8.336832e-02, 7.506535e-01, 2.883167e+00, -8.047154e-01, 1.348128e-11, 3.392631e-10, 3.403547e+01, 4.288288e-02
3.824000e+08, 8.289477e-02, 7.506722e-01, 2.882845e+00, -8.128157e-01, 1.081708e-11, 3.392236e-10, 3.406728e+01, 4.268807e-02
3.862000e+08, 8.241877e-02, 7.506915e-01, 2.882587e+00, -8.209150e-01, 8.068050e-12, 3.391867e-10, 3.409919e+01, 4.248124e-02
3.900000e+08, 8.194041e-02, 7.507114e-01, 2.882395e+00, -8.290134e-01, 5.232585e-12, 3.391523e-10, 3.413117e+01, 4.226230e-02
3.938000e+08, 8.145977e-02, 7.507320e-01, 2.882270e+00, -8.371111e-01, 2.309047e-12, 3.391204e-10, 3.416324e+01, 4.203115e-02
3.976000e+08, 8.097692e-02, 7.507532e-01, 2.882215e+00, -8.452080e-01, -7.042523e-13, 3.390910e-10, 3.419538e+01, 4.178768e-02
4.014000e+08, 8.049197e-02, 7.507750e-01, 2.882231e+00, -8.533041e-01, -3.809053e-12, 3.390638e-10, 3.422758e+01, 4.153181e-02
4.052000e+08, 8.000499e-02, 7.507974e-01, 2.882322e+00, -8.613997e-01, -7.007140e-12, 3.390390e-10, 3.425984e+01, 4.126345e-02
4.090000e+08, 7.951607e-02, 7.508204e-01, 2.882490e+00, -8.694946e-01, -1.030034e-11, 3.390164e-10, 3.429215e+01, 4.098252e-02
4.128000e+08, 7.902531e-02, 7.508439e-01, 2.882736e+00, -8.775890e-01, -1.369054e-11, 3.389960e-10, 3.432451e+01, 4.068893e-02
4.166000e+08, 7.853281e-02, 7.508680e-01, 2.883062e+00, -8.856829e-01, -1.717963e-11, 3.389778e-10, 3.435690e+01, 4.038261e-02
4.204000e+08, 7.803866e-02, 7.508927e-01, 2.883473e+00, -8.937764e-01, -2.076958e-11, 3.389617e-10, 3.438932e+01, 4.006349e-02
4.242000e+08, 7.754297e-02, 7.509178e-01, 2.883968e+00, -9.018694e-01, -2.446238e-11, 3.389476e-10, 3.442176e+01, 3.973150e-02
4.280000e+08, 7.704583e-02, 7.509435e-01, 2.884553e+00, -9.099622e-01, -2.826004e-11, 3.389354e-10, 3.445421e+01, 3.938657e-02
4.318000e+08, 7.654735e-02, 7.509696e-01, 2.885227e+00, -9.180546e-01, -3.216463e-11, 3.389253e-10, 3.448668e+01, 3.902865e-02
4.356000e+08, 7.604765e-02, 7.509962e-01, 2.885995e+00, -9.261469e-01, -3.617821e-11, 3.389170e-10, 3.451914e+01, 3.865767e-02
4.394000e+08, 7.554684e-02, 7.510233e-01, 2.886859e+00, -9.342389e-01, -4.030290e-11, 3.389105e-10, 3.455159e+01, 3.827359e-02
4.432000e+08, 7.504503e-02, 7.510508e-01, 2.887821e+00, -9.423307e-01, -4.454080e-11, 3.389059e-10, 3.458403e+01, 3.787634e-02
4.470000e+08, 7.454235e-02, 7.510787e-01, 2.888885e+00, -9.504225e-01, -4.889407e-11, 3.389029e-10, 3.461645e+01, 3.746590e-02
4.508000e+08, 7.403890e-02, 7.511071e-01, 2.890052e+00, -9.585142e-01, -5.336483e-11, 3.389017e-10, 3.464884e+01, 3.704221e-02
4.546000e+08, 7.353483e-02, 7.511358e-01, 2.891326e+00, -9.666058e-01, -5.795524e-11, 3.389021e-10, 3.468119e+01, 3.660524e-02
4.584000e+08, 7.303026e-02, 7.511649e-01, 2.892710e+00, -9.746975e-01, -6.266743e-11, 3.389041e-10, 3.471349e+01, 3.615494e-02
4.622000e+08, 7.252532e-02, 7.511943e-01, 2.894206e+00, -9.827892e-01, -6.750354e-11, 3.389076e-10, 3.474574e+01, 3.569130e-02
4.660000e+08, 7.202015e-02, 7.512241e-01, 2.895818e+00, -9.908810e-01, -7.246568e-11, 3.389126e-10, 3.477793e+01, 3.521428e-02
4.698000e+08, 7.151489e-02, 7.512541e-01, 2.897548e+00, -9.989729e-01, -7.755592e-11, 3.389191e-10, 3.481005e+01, 3.472387e-02
4.736000e+08, 7.100969e-02, 7.512845e-01, 2.899400e+00, -1.007065e+00, -8.277632e-11, 3.389269e-10, 3.484210e+01, 3.422003e-02
4.774000e+08, 7.050470e-02, 7.513152e-01, 2.901376e+00, -1.015157e+00, -8.812887e-11, 3.389361e-10, 3.487405e+01, 3.370276e-02
4.812000e+08, 7.000006e-02, 7.513461e-01, 2.903481e+00, -1.023250e+00, -9.361552e-11, 3.389467e-10, 3.490592e+01, 3.317204e-02
4.850000e+08, 6.949594e-02, 7.513772e-01, 2.905716e+00, -1.031342e+00, -9.923812e-11, 3.389585e-10, 3.493768e+01, 3.262787e-02
4.888000e+08, 6.899250e-02, 7.514085e-01, 2.908085e+00, -1.039435e+00, -1.049985e-10, 3.389715e-10, 3.496934e+01, 3.207023e-02
4.926000e+08, 6.848990e-02, 7.514401e-01, 2.910592e+00, -1.047529e+00, -1.108982e-10, 3.389856e-10, 3.500088e+01, 3.149914e-02
4.964000e+08, 6.798832e-02, 7.514718e-01, 2.913240e+00, -1.055622e+00, -1.169390e-10, 3.390009e-10, 3.503229e+01, 3.091458e-02
5.002000e+08, 6.748793e-02, 7.515037e-01, 2.916032e+00, -1.063716e+00, -1.231222e-10, 3.390173e-10, 3.506357e+01, 3.031658e-02
5.040000e+08, 6.698892e-02, 7.515357e-01, 2.918972e+00, -1.071811e+00, -1.294491e-10, 3.390347e-10, 3.509471e+01, 2.970513e-02
5.078000e+08, 6.649146e-02, 7.515678e-01, 2.922062e+00, -1.079906e+00, -1.359208e-10, 3.390531e-10, 3.512569e+01, 2.908026e-02
5.116000e+08, 6.599576e-02, 7.516000e-01, 2.925308e+00, -1.088001e+00, -1.425383e-10, 3.390725e-10, 3.515652e+01, 2.844198e-02
5.154000e+08, 6.550201e-02, 7.516323e-01, 2.928711e+00, -1.096097e+00, -1.493023e-10, 3.390928e-10, 3.518719e+01, 2.779031e-02
5.192000e+08, 6.501041e-02, 7.516647e-01, 2.932276e+00, -1.104193e+00, -1.562131e-10, 3.391139e-10, 3.521768e+01, 2.712528e-02
5.230000e+08, 6.452116e-02, 7.516970e-01, 2.936005e+00, -1.112290e+00, -1.632711e-10, 3.391359e-10, 3.524798e+01, 2.644693e-02
5.268000e+08, 6.403449e-02, 7.517294e-01, 2.939904e+00, -1.120387e+00, -1.704762e-10, 3.391586e-10, 3.527810e+01, 2.575527e-02
5.306000e+08, 6.355061e-02, 7.517618e-01, 2.943974e+00, -1.128485e+00, -1.778278e-10, 3.391821e-10, 3.530801e+01, 2.505036e-02
5.344000e+08, 6.306975e-02, 7.517942e-01, 2.948220e+00, -1.136583e+00, -1.853253e-10, 3.392063e-10, 3.533772e+01, 2.433223e-02
5.382000e+08, 6.259213e-02, 7.518265e-01, 2.952645e+00, -1.144682e+00, -1.929676e-10, 3.392311e-10, 3.536721e+01, 2.360092e-02
5.420000e+08, 6.211800e-02, 7.518588e-01, 2.957252e+00, -1.152781e+00, -2.007530e-10, 3.392566e-10, 3.539647e+01, 2.285649e-02
5.458000e+08, 6.164759e-02, 7.518909e-01, 2.962045e+00, -1.160882e+00, -2.086795e-10, 3.392826e-10, 3.542550e+01, 2.209899e-02
5.496000e+08, 6.118115e-02, 7.519230e-01, 2.967028e+00, -1.168982e+00, -2.167446e-10, 3.393092e-10, 3.545429e+01, 2.132847e-02
5.534000e+08, 6.071895e-02, 7.519549e-01, 2.972203e+00, -1.177084e+00, -2.249452e-10, 3.393364e-10, 3.548283e+01, 2.054500e-02
5.572000e+08, 6.026124e-02, 7.519867e-01, 2.977573e+00, -1.185186e+00, -2.332778e-10, 3.393639e-10, 3.551111e+01, 1.974864e-02
5.610000e+08, 5.980828e-02, 7.520183e-01, 2.983143e+00, -1.193288e+00, -2.417381e-10, 3.393920e-10, 3.553913e+01, 1.893946e-02
5.648000e+08, 5.936035e-02, 7.520498e-01, 2.988915e+00, -1.201392e+00, -2.503213e-10, 3.394204e-10, 3.556687e+01, 1.811753e-02
5.686000e+08, 5.891774e-02, 7.520810e-01, 2.994892e+00, -1.209496e+00, -2.590217e-10, 3.394491e-10, 3.559432e+01, 1.728292e-02
5.724000e+08, 5.848071e-02, 7.521120e-01, 3.001076e+00, -1.217601e+00, -2.678331e-10, 3.394782e-10, 3.562148e+01, 1.643572e-02
5.762000e+08, 5.804958e-02, 7.521428e-01, 3.007471e+00, -1.225706e+00, -2.767484e-10, 3.395076e-10, 3.564835e+01, 1.557601e-02
5.800000e+08, 5.762462e-02, 7.521733e-01, 3.014079e+00, -1.233812e+00, -2.857597e-10, 3.395373e-10, 3.567490e+01, 1.470387e-02
5.838000e+08, 5.720615e-02, 7.522035e-01, 3.020901e+00, -1.241919e+00, -2.948582e-10, 3.395672e-10, 3.570114e+01, 1.381941e-02
5.876000e+08, 5.679447e-02, 7.522335e-01, 3.027941e+00, -1.250026e+00, -3.040343e-10, 3.395972e-10, 3.572705e+01, 1.292271e-02
5.914000e+08, 5.638990e-02, 7.522631e-01, 3.035201e+00, -1.258135e+00, -3.132775e-10, 3.396275e-10, 3.575262e+01, 1.201387e-02
5.952000e+08, 5.599275e-02, 7.522924e-01, 3.042680e+00, -1.266244e+00, -3.225762e-10, 3.396578e-10, 3.577786e+01, 1.109300e-02
5.990000e+08, 5.560335e-02, 7.523213e-01, 3.050382e+00, -1.274353e+00, -3.319180e-10, 3.396883e-10, 3.580274e+01, 1.016020e-02
6.028000e+08, 5.522202e-02, 7.523499e-01, 3.058307e+00, -1.282464e+00, -3.412893e-10, 3.397188e-10, 3.582727e+01, 9.215588e-03
6.066000e+08, 5.484909e-02, 7.523781e-01, 3.066456e+00, -1.290575e+00, -3.506756e-10, 3.397494e-10, 3.585143e+01, 8.259271e-03
6.104000e+08, 5.448491e-02, 7.524059e-01, 3.074829e+00, -1.298687e+00, -3.600613e-10, 3.397799e-10, 3.587521e+01, 7.291370e-03
6.142000e+08, 5.412980e-02, 7.524332e-01, 3.083426e+00, -1.306799e+00, -3.694300e-10, 3.398105e-10, 3.589861e+01, 6.312008e-03
6.180000e+08, 5.378411e-02, 7.524601e-01, 3.092246e+00, -1.314913e+00, -3.787639e-10, 3.398410e-10, 3.592162e+01, 5.321311e-03
6.218000e+08, 5.344818e-02, 7.524866e-01, 3.101289e+00, -1.323027e+00, -3.880444e-10, 3.398714e-10, 3.594423e+01, 4.319407e-03
6.256000e+08, 5.312235e-02, 7.525126e-01, 3.110554e+00, -1.331142e+00, -3.972520e-10, 3.399017e-10, 3.596644e+01, 3.306430e-03
6.294000e+08, 5.280697e-02, 7.525381e-01, 3.120039e+00, -1.339257e+00, -4.063662e-10, 3.399318e-10, 3.598823e+01, 2.282517e-03
6.332000e+08, 5.250239e-02, 7.525631e-01, 3.129742e+00, -1.347373e+00, -4.153654e-10, 3.399618e-10, 3.600960e+01, 1.247810e-03
6.370000e+08, 5.220894e-02, 7.525876e-01, 3.139659e+00, -1.355490e+00, -4.242275e-10, 3.399916e-10, 3.603053e+01, 2.024526e-04
6.408000e+08, 5.192697e-02, 7.526116e-01, -3.133397e+00, -1.363608e+00, -4.329293e-10, 3.400212e-10, 3.605103e+01, -8.534070e-04
6.446000e+08, 5.165682e-02, 7.526350e-01, -3.123061e+00, -1.371726e+00, -4.414474e-10, 3.400506e-10, 3.607109e+01, -1.919617e-03
6.484000e+08, 5.139884e-02, 7.526578e-01, -3.112521e+00, -1.379846e+00, -4.497573e-10, 3.400797e-10, 3.609069e+01, -2.996021e-03
6.522000e+08, 5.115334e-02, 7.526801e-01, -3.101782e+00, -1.387965e+00, -4.578345e-10, 3.401086e-10, 3.610983e+01, -4.082461e-03
6.560000e+08, 5.092066e-02, 7.527018e-01, -3.090851e+00, -1.396086e+00, -4.656539e-10, 3.401371e-10, 3.612850e+01, -5.178774e-03
6.598000e+08, 5.070112e-02, 7.527229e-01, -3.079733e+00, -1.404207e+00, -4.731905e-10, 3.401653e-10, 3.614670e+01, -6.284793e-03
6.636000e+08, 5.049503e-02, 7.527433e-01, -3.068435e+00, -1.412329e+00, -4.804191e-10, 3.401931e-10, 3.616442e+01, -7.400349e-03
6.674000e+08, 5.030271e-02, 7.527631e-01, -3.056964e+00, -1.420451e+00, -4.873147e-10, 3.402206e-10, 3.618164e+01, -8.525268e-03
6.712000e+08, 5.012444e-02, 7.527823e-01, -3.045329e+00, -1.428574e+00, -4.938526e-10, 3.402476e-10, 3.619837e+01, -9.659374e-03
6.750000e+08, 4.996052e-02, 7.528009e-01, -3.033538e+00, -1.436698e+00, -5.000087e-10, 3.402743e-10, 3.621460e+01, -1.080249e-02
6.788000e+08, 4.981122e-02, 7.528187e-01, -3.021600e+00, -1.444823e+00, -5.057597e-10, 3.403005e-10, 3.623031e+01, -1.195442e-02
6.826000e+08, 4.967680e-02, 7.528359e-01, -3.009524e+00, -1.452948e+00, -5.110829e-10, 3.403263e-10, 3.624551e+01, -1.311499e-02
6.864000e+08, 4.955752e-02, 7.528524e-01, -2.997321e+00, -1.461073e+00, -5.159571e-10, 3.403516e-10, 3.626019e+01, -1.428400e-02
6.902000e+08, 4.945360e-02, 7.528682e-01, -2.985002e+00, -1.469200e+00, -5.203620e-10, 3.403765e-10, 3.627433e+01, -1.546127e-02
6.940000e+08, 4.936527e-02, 7.528832e-01, -2.972578e+00, -1.477326e+00, -5.242791e-10, 3.404008e-10, 3.628794e+01, -1.664659e-02
6.978000e+08, 4.929273e-02, 7.528976e-01, -2.960060e+00, -1.485454e+00, -5.276914e-10, 3.404246e-10, 3.630101e+01, -1.783976e-02
7.016000e+08, 4.923617e-02, 7.529112e-01, -2.947461e+00, -1.493582e+00, -5.305837e-10, 3.404478e-10, 3.631353e+01, -1.904059e-02
7.054000e+08, 4.919575e-02, 7.529241e-01, -2.934793e+00, -1.501711e+00, -5.329427e-10, 3.404705e-10, 3.632549e+01, -2.024886e-02
7.092000e+08, 4.917162e-02, 7.529362e-01, -2.922068e+00, -1.509840e+00, -5.347575e-10, 3.404927e-10, 3.633689e+01, -2.146436e-02
7.130000e+08, 4.916392e-02, 7.529475e-01, -2.909300e+00, -1.517969e+00, -5.360191e-10, 3.405142e-10, 3.634773e+01, -2.268689e-02
7.168000e+08, 4.917276e-02, 7.529581e-01, -2.896502e+00, -1.526099e+00, -5.367210e-10, 3.405352e-10, 3.635800e+01, -2.391622e-02
7.206000e+08, 4.919821e-02, 7.529679e-01, -2.883688e+00, -1.534230e+00, -5.368590e-10, 3.405555e-10, 3.636768e+01, -2.515213e-02
7.244000e+08, 4.924036e-02, 7.529769e-01, -2.870869e+00, -1.542361e+00, -5.364314e-10, 3.405752e-10, 3.637679e+01, -2.639442e-02
7.282000e+08, 4.929926e-02, 7.529852e-01, -2.858062e+00, -1.550493e+00, -5.354388e-10, 3.405943e-10, 3.638530e+01, -2.764284e-02
7.320000e+08, 4.937492e-02, 7.529926e-01, -2.845277e+00, -1.558625e+00, -5.338845e-10, 3.406127e-10, 3.639323e+01, -2.889718e-02
7.358000e+08, 4.946735e-02, 7.529992e-01, -2.832530e+00, -1.566757e+00, -5.317738e-10, 3.406305e-10, 3.640055e+01, -3.015720e-02
7.396000e+08, 4.957655e-02, 7.530049e-01, -2.819834e+00, -1.574890e+00, -5.291148e-10, 3.406475e-10, 3.640727e+01, -3.142267e-02
7.434000e+08, 4.970248e-02, 7.530099e-01, -2.807200e+00, -1.583024e+00, -5.259175e-10, 3.406639e-10, 3.641339e+01, -3.269336e-02
7.472000e+08, 4.984507e-02, 7.530140e-01, -2.794644e+00, -1.591157e+00, -5.221942e-10, 3.406796e-10, 3.641889e+01, -3.396903e-02
7.510000e+08, 5.000427e-02, 7.530173e-01, -2.782176e+00, -1.599291e+00, -5.179593e-10, 3.406946e-10, 3.642378e+01, -3.524943e-02
7.548000e+08, 5.017996e-02, 7.530197e-01, -2.769809e+00, -1.607426e+00, -5.132290e-10, 3.407089e-10, 3.642805e+01, -3.653433e-02
7.586000e+08, 5.037204e-02, 7.530213e-01, -2.757555e+00, -1.615561e+00, -5.080213e-10, 3.407225e-10, 3.643169e+01, -3.782347e-02
7.624000e+08, 5.058037e-02, 7.530221e-01, -2.745425e+00, -1.623696e+00, -5.023555e-10, 3.407353e-10, 3.643471e+01, -3.911662e-02
7.662000e+08, 5.080480e-02, 7.530220e-01, -2.733431e+00, -1.631831e+00, -4.962527e-10, 3.407474e-10, 3.643709e+01, -4.041351e-02
7.700000e+08, 5.104517e-02, 7.530210e-01, -2.721582e+00, -1.639967e+00, -4.897347e-10, 3.407587e-10, 3.643884e+01, -4.171390e-02
7.738000e+08, 5.130130e-02, 7.530192e-01, -2.709889e+00, -1.648103e+00, -4.828246e-10, 3.407693e-10, 3.643995e+01, -4.301754e-02
7.776000e+08, 5.157298e-02, 7.530165e-01, -2.698361e+00, -1.656239e+00, -4.755463e-10, 3.407791e-10, 3.644042e+01, -4.432416e-02
7.814000e+08, 5.186001e-02, 7.530129e-01, -2.687007e+00, -1.664376e+00, -4.679241e-10, 3.407882e-10, 3.644025e+01, -4.563352e-02
7.852000e+08, 5.216215e-02, 7.530084e-01, -2.675835e+00, -1.672512e+00, -4.599830e-10, 3.407965e-10, 3.643943e+01, -4.694534e-02
7.890000e+08, 5.247918e-02, 7.530031e-01, -2.664852e+00, -1.680649e+00, -4.517479e-10, 3.408040e-10, 3.643796e+01, -4.825936e-02
