Frequency [Hz], |S00| [-], |S10| [-], Arg(S00) [-], Arg(S10) [-], Delay 0>0 [s], Delay 0>1 [s], |Z0| [Ohm] , Arg(Z0) [-]
2.000000e+08, 6.407873e-02, 7.943298e-01, -1.826166e+00, -4.059386e-01, 3.797126e-10, 3.058488e-10, 4.841314e+01, -1.238750e-01
2.038000e+08, 6.477366e-02, 7.944644e-01, -1.835232e+00, -4.132411e-01, 3.797084e-10, 3.064444e-10, 4.834161e+01, -1.249173e-01
2.076000e+08, 6.547689e-02, 7.945993e-01, -1.844298e+00, -4.205578e-01, 3.796679e-10, 3.070183e-10, 4.826894e+01, -1.259589e-01
2.114000e+08, 6.618788e-02, 7.947343e-01, -1.853363e+00, -4.278882e-01, 3.795971e-10, 3.075716e-10, 4.819514e+01, -1.269983e-01
2.152000e+08, 6.690611e-02, 7.948694e-01, -1.862426e+00, -4.352318e-01, 3.795013e-10, 3.081057e-10, 4.812024e+01, -1.280343e-01
2.190000e+08, 6.763112e-02, 7.950045e-01, -1.871487e+00, -4.425881e-01, 3.793851e-10, 3.086216e-10, 4.804424e+01, -1.290655e-01
2.228000e+08, 6.836247e-02, 7.951395e-01, -1.880546e+00, -4.499568e-01, 3.792525e-10, 3.091203e-10, 4.796716e+01, -1.300908e-01
2.266000e+08, 6.909973e-02, 7.952742e-01, -1.889601e+00, -4.573374e-01, 3.791072e-10, 3.096026e-10, 4.788901e+01, -1.311089e-01
2.304000e+08, 6.984250e-02, 7.954085e-01, -1.898652e+00, -4.647295e-01, 3.789523e-10, 3.100695e-10, 4.780981e+01, -1.321188e-01
2.342000e+08, 7.059040e-02, 7.955423e-01, -1.907700e+00, -4.721328e-01, 3.787906e-10, 3.105217e-10, 4.772958e+01, -1.331193e-01
2.380000e+08, 7.134307e-02, 7.956756e-01, -1.916744e+00, -4.795468e-01, 3.786246e-10, 3.109597e-10, 4.764833e+01, -1.341095e-01
2.418000e+08, 7.210018e-02, 7.958081e-01, -1.925784e+00, -4.869713e-01, 3.784564e-10, 3.113843e-10, 4.756608e+01, -1.350883e-01
2.456000e+08, 7.286139e-02, 7.959399e-01, -1.934820e+00, -4.944060e-01, 3.782878e-10, 3.117959e-10, 4.748284e+01, -1.360548e-01
2.494000e+08, 7.362639e-02, 7.960708e-01, -1.943852e+00, -5.018504e-01, 3.781204e-10, 3.121952e-10, 4.739863e+01, -1.370081e-01
2.532000e+08, 7.439489e-02, 7.962007e-01, -1.952880e+00, -5.093044e-01, 3.779556e-10, 3.125826e-10, 4.731348e+01, -1.379471e-01
2.570000e+08, 7.516660e-02, 7.963296e-01, -1.961904e+00, -5.167677e-01, 3.777945e-10, 3.129584e-10, 4.722740e+01, -1.388712e-01
2.608000e+08, 7.594125e-02, 7.964573e-01, -1.970925e+00, -5.242399e-01, 3.776382e-10, 3.133232e-10, 4.714040e+01, -1.397793e-01
2.646000e+08, 7.671858e-02, 7.965837e-01, -1.979941e+00, -5.317209e-01, 3.774875e-10, 3.136772e-10, 4.705252e+01, -1.406708e-01
2.684000e+08, 7.749832e-02, 7.967088e-01, -1.988954e+00, -5.392102e-01, 3.773431e-10, 3.140208e-10, 4.696376e+01, -1.415448e-01
2.722000e+08, 7.828025e-02, 7.968324e-01, -1.997964e+00, -5.467078e-01, 3.772055e-10, 3.143543e-10, 4.687415e+01, -1.424006e-01
2.760000e+08, 7.906411e-02, 7.969545e-01, -2.006970e+00, -5.542134e-01, 3.770753e-10, 3.146779e-10, 4.678371e+01, -1.432373e-01
2.798000e+08, 7.984970e-02, 7.970751e-01, -2.015973e+00, -5.617267e-01, 3.769528e-10, 3.149920e-10, 4.669246e+01, -1.440543e-01
2.836000e+08, 8.063678e-02, 7.971939e-01, -2.024973e+00, -5.692475e-01, 3.768382e-10, 3.152967e-10, 4.660042e+01, -1.448509e-01
2.874000e+08, 8.142515e-02, 7.973110e-01, -2.033971e+00, -5.767755e-01, 3.767318e-10, 3.155923e-10, 4.650761e+01, -1.456263e-01
2.912000e+08, 8.221459e-02, 7.974263e-01, -2.042965e+00, -5.843106e-01, 3.766338e-10, 3.158790e-10, 4.641406e+01, -1.463800e-01
2.950000e+08, 8.300492e-02, 7.975397e-01, -2.051958e+00, -5.918526e-01, 3.765442e-10, 3.161569e-10, 4.631979e+01, -1.471112e-01
2.988000e+08, 8.379592e-02, 7.976511e-01, -2.060948e+00, -5.994012e-01, 3.764629e-10, 3.164264e-10, 4.622481e+01, -1.478192e-01
3.026000e+08, 8.458743e-02, 7.977605e-01, -2.069937e+00, -6.069562e-01, 3.763901e-10, 3.166874e-10, 4.612916e+01, -1.485036e-01
3.064000e+08, 8.537924e-02, 7.978677e-01, -2.078924e+00, -6.145175e-01, 3.763257e-10, 3.169402e-10, 4.603285e+01, -1.491636e-01
3.102000e+08, 8.617118e-02, 7.979728e-01, -2.087909e+00, -6.220848e-01, 3.762695e-10, 3.171849e-10, 4.593591e+01, -1.497988e-01
3.140000e+08, 8.696309e-02, 7.980757e-01, -2.096893e+00, -6.296579e-01, 3.762215e-10, 3.174216e-10, 4.583837e+01, -1.504084e-01
3.178000e+08, 8.775477e-02, 7.981763e-01, -2.105875e+00, -6.372367e-01, 3.761815e-10, 3.176505e-10, 4.574024e+01, -1.509919e-01
3.216000e+08, 8.854608e-02, 7.982746e-01, -2.114857e+00, -6.448210e-01, 3.761494e-10, 3.178717e-10, 4.564155e+01, -1.515489e-01
3.254000e+08, 8.933684e-02, 7.983705e-01, -2.123838e+00, -6.524105e-01, 3.761250e-10, 3.180854e-10, 4.554233e+01, -1.520787e-01
3.292000e+08, 9.012689e-02, 7.984639e-01, -2.132818e+00, -6.600051e-01, 3.761080e-10, 3.182915e-10, 4.544260e+01, -1.525809e-01
3.330000e+08, 9.091608e-02, 7.985548e-01, -2.141798e+00, -6.676047e-01, 3.760983e-10, 3.184903e-10, 4.534239e+01, -1.530549e-01
3.368000e+08, 9.170426e-02, 7.986433e-01, -2.150778e+00, -6.752090e-01, 3.760957e-10, 3.186817e-10, 4.524172e+01, -1.535002e-01
3.406000e+08, 9.249128e-02, 7.987291e-01, -2.159758e+00, -6.828179e-01, 3.760999e-10, 3.188660e-10, 4.514062e+01, -1.539164e-01
3.444000e+08, 9.327698e-02, 7.988123e-01, -2.168738e+00, -6.904312e-01, 3.761107e-10, 3.190432e-10, 4.503910e+01, -1.543030e-01
3.482000e+08, 9.406122e-02, 7.988929e-01, -2.177718e+00, -6.980487e-01, 3.761280e-10, 3.192134e-10, 4.493721e+01, -1.546595e-01
3.520000e+08, 9.484386e-02, 7.989708e-01, -2.186698e+00, -7.056702e-01, 3.761513e-10, 3.193767e-10, 4.483496e+01, -1.549856e-01
3.558000e+08, 9.562477e-02, 7.990459e-01, -2.195679e+00, -7.132957e-01, 3.761807e-10, 3.195331e-10, 4.473238e+01, -1.552806e-01
3.596000e+08, 9.640379e-02, 7.991183e-01, -2.204661e+00, -7.209249e-01, 3.762157e-10, 3.196828e-10, 4.462950e+01, -1.555443e-01
3.634000e+08, 9.718081e-02, 7.991879e-01, -2.213644e+00, -7.285577e-01, 3.762561e-10, 3.198259e-10, 4.452635e+01, -1.557763e-01
3.672000e+08, 9.795567e-02, 7.992548e-01, -2.222627e+00, -7.361939e-01, 3.763018e-10, 3.199623e-10, 4.442294e+01, -1.559761e-01
3.710000e+08, 9.872827e-02, 7.993188e-01, -2.231612e+00, -7.438334e-01, 3.763526e-10, 3.200922e-10, 4.431931e+01, -1.561434e-01
3.748000e+08, 9.949845e-02, 7.993799e-01, -2.240598e+00, -7.514759e-01, 3.764080e-10, 3.202157e-10, 4.421548e+01, -1.562777e-01
3.786000e+08, 1.002661e-01, 7.994382e-01, -2.249585e+00, -7.591214e-01, 3.764681e-10, 3.203328e-10, 4.411149e+01, -1.563788e-01
3.824000e+08, 1.010311e-01, 7.994936e-01, -2.258573e+00, -7.667697e-01, 3.765325e-10, 3.204437e-10, 4.400735e+01, -1.564463e-01
3.862000e+08, 1.017933e-01, 7.995461e-01, -2.267563e+00, -7.744207e-01, 3.766011e-10, 3.205483e-10, 4.390309e+01, -1.564798e-01
3.900000e+08, 1.025526e-01, 7.995957e-01, -2.276555e+00, -7.820741e-01, 3.766736e-10, 3.206468e-10, 4.379875e+01, -1.564791e-01
3.938000e+08, 1.033089e-01, 7.996424e-01, -2.285549e+00, -7.897299e-01, 3.767498e-10, 3.207393e-10, 4.369435e+01, -1.564438e-01
3.976000e+08, 1.040621e-01, 7.996862e-01, -2.294544e+00, -7.973879e-01, 3.768296e-10, 3.208257e-10, 4.358991e+01, -1.563737e-01
4.014000e+08, 1.048120e-01, 7.997270e-01, -2.303541e+00, -8.050480e-01, 3.769127e-10, 3.209063e-10, 4.348547e+01, -1.562684e-01
4.052000e+08, 1.055585e-01, 7.997649e-01, -2.312540e+00, -8.127100e-01, 3.769990e-10, 3.209811e-10, 4.338104e+01, -1.561276e-01
4.090000e+08, 1.063016e-01, 7.997999e-01, -2.321542e+00, -8.203737e-01, 3.770883e-10, 3.210501e-10, 4.327667e+01, -1.559512e-01
4.128000e+08, 1.070410e-01, 7.998320e-01, -2.330545e+00, -8.280392e-01, 3.771805e-10, 3.211134e-10, 4.317236e+01, -1.557389e-01
4.166000e+08, 1.077768e-01, 7.998612e-01, -2.339551e+00, -8.357061e-01, 3.772753e-10, 3.211711e-10, 4.306816e+01, -1.554904e-01
4.204000e+08, 1.085087e-01, 7.998874e-01, -2.348559e+00, -8.433744e-01, 3.773726e-10, 3.212233e-10, 4.296409e+01, -1.552056e-01
4.242000e+08, 1.092367e-01, 7.999108e-01, -2.357569e+00, -8.510440e-01, 3.774724e-10, 3.212701e-10, 4.286018e+01, -1.548841e-01
4.280000e+08, 1.099607e-01, 7.999312e-01, -2.366581e+00, -8.587147e-01, 3.775743e-10, 3.213115e-10, 4.275645e+01, -1.545259e-01
4.318000e+08, 1.106805e-01, 7.999488e-01, -2.375596e+00, -8.663863e-01, 3.776783e-10, 3.213477e-10, 4.265293e+01, -1.541307e-01
4.356000e+08, 1.113961e-01, 7.999636e-01, -2.384614e+00, -8.740589e-01, 3.777843e-10, 3.213786e-10, 4.254964e+01, -1.536983e-01
4.394000e+08, 1.121074e-01, 7.999755e-01, -2.393634e+00, -8.817321e-01, 3.778921e-10, 3.214044e-10, 4.244662e+01, -1.532287e-01
4.432000e+08, 1.128142e-01, 7.999846e-01, -2.402656e+00, -8.894060e-01, 3.780016e-10, 3.214252e-10, 4.234389e+01, -1.527216e-01
4.470000e+08, 1.135165e-01, 7.999909e-01, -2.411682e+00, -8.970804e-01, 3.781127e-10, 3.214410e-10, 4.224148e+01, -1.521769e-01
4.508000e+08, 1.142142e-01, 7.999944e-01, -2.420710e+00, -9.047551e-01, 3.782253e-10, 3.214520e-10, 4.213941e+01, -1.515945e-01
4.546000e+08, 1.149071e-01, 7.999952e-01, -2.429740e+00, -9.124302e-01, 3.783392e-10, 3.214582e-10, 4.203771e+01, -1.509743e-01
4.584000e+08, 1.155952e-01, 7.999933e-01, -2.438773e+00, -9.201053e-01, 3.784545e-10, 3.214597e-10, 4.193641e+01, -1.503162e-01
4.622000e+08, 1.162784e-01, 7.999886e-01, -2.447809e+00, -9.277805e-01, 3.785709e-10, 3.214566e-10, 4.183554e+01, -1.496201e-01
4.660000e+08, 1.169565e-01, 7.999813e-01, -2.456848e+00, -9.354557e-01, 3.786885e-10, 3.214489e-10, 4.173511e+01, -1.488860e-01
4.698000e+08, 1.176296e-01, 7.999714e-01, -2.465890e+00, -9.431306e-01, 3.788071e-10, 3.214368e-10, 4.163515e+01, -1.481137e-01
4.736000e+08, 1.182974e-01, 7.999589e-01, -2.474934e+00, -9.508053e-01, 3.789266e-10, 3.214204e-10, 4.153570e+01, -1.473033e-01
4.774000e+08, 1.189600e-01, 7.999439e-01, -2.483981e+00, -9.584795e-01, 3.790470e-10, 3.213997e-10, 4.143677e+01, -1.464547e-01
4.812000e+08, 1.196172e-01, 7.999263e-01, -2.493032e+00, -9.661533e-01, 3.791682e-10, 3.213749e-10, 4.133840e+01, -1.455678e-01
4.850000e+08, 1.202689e-01, 7.999063e-01, -2.502085e+00, -9.738265e-01, 3.792902e-10, 3.213460e-10, 4.124060e+01, -1.446428e-01
4.888000e+08, 1.209151e-01, 7.998838e-01, -2.511141e+00, -9.814990e-01, 3.794128e-10, 3.213131e-10, 4.114341e+01, -1.436796e-01
4.926000e+08, 1.215556e-01, 7.998590e-01, -2.520200e+00, -9.891707e-01, 3.795361e-10, 3.212763e-10, 4.104684e+01, -1.426782e-01
4.964000e+08, 1.221905e-01, 7.998318e-01, -2.529261e+00, -9.968415e-01, 3.796599e-10, 3.212358e-10, 4.095093e+01, -1.416386e-01
5.002000e+08, 1.228195e-01, 7.998023e-01, -2.538326e+00, -1.004511e+00, 3.797843e-10, 3.211915e-10, 4.085569e+01, -1.405610e-01
5.040000e+08, 1.234426e-01, 7.997705e-01, -2.547394e+00, -1.012180e+00, 3.799092e-10, 3.211436e-10, 4.076115e+01, -1.394453e-01
5.078000e+08, 1.240598e-01, 7.997366e-01, -2.556465e+00, -1.019848e+00, 3.800345e-10, 3.210923e-10, 4.066734e+01, -1.382917e-01
5.116000e+08, 1.246710e-01, 7.997004e-01, -2.565538e+00, -1.027514e+00, 3.801603e-10, 3.210375e-10, 4.057428e+01, -1.371002e-01
5.154000e+08, 1.252760e-01, 7.996622e-01, -2.574615e+00, -1.035179e+00, 3.802864e-10, 3.209794e-10, 4.048199e+01, -1.358710e-01
5.192000e+08, 1.258748e-01, 7.996220e-01, -2.583695e+00, -1.042843e+00, 3.804129e-10, 3.209181e-10, 4.039050e+01, -1.346041e-01
5.230000e+08, 1.264674e-01, 7.995797e-01, -2.592778e+00, -1.050505e+00, 3.805397e-10, 3.208537e-10, 4.029983e+01, -1.332997e-01
5.268000e+08, 1.270536e-01, 7.995355e-01, -2.601864e+00, -1.058166e+00, 3.806668e-10, 3.207863e-10, 4.021000e+01, -1.319579e-01
5.306000e+08, 1.276334e-01, 7.994894e-01, -2.610952e+00, -1.065825e+00, 3.807942e-10, 3.207160e-10, 4.012104e+01, -1.305790e-01
5.344000e+08, 1.282068e-01, 7.994414e-01, -2.620044e+00, -1.073483e+00, 3.809218e-10, 3.206429e-10, 4.003297e+01, -1.291630e-01
5.382000e+08, 1.287735e-01, 7.993917e-01, -2.629139e+00, -1.081138e+00, 3.810498e-10, 3.205671e-10, 3.994581e+01, -1.277102e-01
5.420000e+08, 1.293336e-01, 7.993403e-01, -2.638237e+00, -1.088792e+00, 3.811779e-10, 3.204886e-10, 3.985958e+01, -1.262207e-01
5.458000e+08, 1.298871e-01, 7.992872e-01, -2.647338e+00, -1.096444e+00, 3.813063e-10, 3.204077e-10, 3.977431e+01, -1.246948e-01
5.496000e+08, 1.304337e-01, 7.992326e-01, -2.656442e+00, -1.104094e+00, 3.814349e-10, 3.203244e-10, 3.969002e+01, -1.231327e-01
5.534000e+08, 1.309735e-01, 7.991764e-01, -2.665550e+00, -1.111743e+00, 3.815638e-10, 3.202387e-10, 3.960672e+01, -1.215346e-01
5.572000e+08, 1.315064e-01, 7.991187e-01, -2.674660e+00, -1.119389e+00, 3.816928e-10, 3.201509e-10, 3.952445e+01, -1.199008e-01
5.610000e+08, 1.320324e-01, 7.990596e-01, -2.683773e+00, -1.127033e+00, 3.818221e-10, 3.200611e-10, 3.944321e+01, -1.182316e-01
5.648000e+08, 1.325513e-01, 7.989992e-01, -2.692890e+00, -1.134674e+00, 3.819517e-10, 3.199692e-10, 3.936304e+01, -1.165272e-01
5.686000e+08, 1.330631e-01, 7.989375e-01, -2.702009e+00, -1.142314e+00, 3.820814e-10, 3.198754e-10, 3.928395e+01, -1.147880e-01
5.724000e+08, 1.335678e-01, 7.988745e-01, -2.711132e+00, -1.149951e+00, 3.822114e-10, 3.197799e-10, 3.920596e+01, -1.130142e-01
5.762000e+08, 1.340653e-01, 7.988104e-01, -2.720257e+00, -1.157586e+00, 3.823416e-10, 3.196828e-10, 3.912909e+01, -1.112062e-01
5.800000e+08, 1.345554e-01, 7.987453e-01, -2.729386e+00, -1.165219e+00, 3.824721e-10, 3.195840e-10, 3.905336e+01, -1.093643e-01
5.838000e+08, 1.350383e-01, 7.986791e-01, -2.738518e+00, -1.172850e+00, 3.826028e-10, 3.194839e-10, 3.897879e+01, -1.074889e-01
5.876000e+08, 1.355138e-01, 7.986119e-01, -2.747653e+00, -1.180478e+00, 3.827339e-10, 3.193824e-10, 3.890541e+01, -1.055803e-01
5.914000e+08, 1.359818e-01, 7.985439e-01, -2.756791e+00, -1.188103e+00, 3.828652e-10, 3.192796e-10, 3.883322e+01, -1.036389e-01
5.952000e+08, 1.364423e-01, 7.984750e-01, -2.765933e+00, -1.195726e+00, 3.829968e-10, 3.191757e-10, 3.876224e+01, -1.016651e-01
5.990000e+08, 1.368952e-01, 7.984054e-01, -2.775077e+00, -1.203347e+00, 3.831288e-10, 3.190708e-10, 3.869251e+01, -9.965937e-02
6.028000e+08, 1.373406e-01, 7.983350e-01, -2.784225e+00, -1.210965e+00, 3.832611e-10, 3.189650e-10, 3.862402e+01, -9.762204e-02
6.066000e+08, 1.377783e-01, 7.982641e-01, -2.793376e+00, -1.218581e+00, 3.833938e-10, 3.188583e-10, 3.855680e+01, -9.555358e-02
6.104000e+08, 1.382082e-01, 7.981926e-01, -2.802530e+00, -1.226194e+00, 3.835269e-10, 3.187510e-10, 3.849088e+01, -9.345443e-02
6.142000e+08, 1.386304e-01, 7.981206e-01, -2.811687e+00, -1.233805e+00, 3.836604e-10, 3.186430e-10, 3.842625e+01, -9.132505e-02
6.180000e+08, 1.390448e-01, 7.980482e-01, -2.820847e+00, -1.241413e+00, 3.837944e-10, 3.185346e-10, 3.836295e+01, -8.916591e-02
6.218000e+08, 1.394514e-01, 7.979754e-01, -2.830011e+00, -1.249018e+00, 3.839289e-10, 3.184257e-10, 3.830098e+01, -8.697749e-02
6.256000e+08, 1.398500e-01, 7.979024e-01, -2.839177e+00, -1.256621e+00, 3.840638e-10, 3.183166e-10, 3.824037e+01, -8.476031e-02
6.294000e+08, 1.402406e-01, 7.978291e-01, -2.848347e+00, -1.264221e+00, 3.841993e-10, 3.182072e-10, 3.818112e+01, -8.251486e-02
6.332000e+08, 1.406233e-01, 7.977557e-01, -2.857520e+00, -1.271818e+00, 3.843354e-10, 3.180978e-10, 3.812326e+01, -8.024167e-02
6.370000e+08, 1.409979e-01, 7.976822e-01, -2.866697e+00, -1.279413e+00, 3.844720e-10, 3.179884e-10, 3.806679e+01, -7.794128e-02
6.408000e+08, 1.413645e-01, 7.976087e-01, -2.875877e+00, -1.287006e+00, 3.846093e-10, 3.178791e-10, 3.801174e+01, -7.561423e-02
6.446000e+08, 1.417229e-01, 7.975352e-01, -2.885060e+00, -1.294595e+00, 3.847473e-10, 3.177700e-10, 3.795812e+01, -7.326109e-02
6.484000e+08, 1.420731e-01, 7.974618e-01, -2.894246e+00, -1.302182e+00, 3.848860e-10, 3.176612e-10, 3.790594e+01, -7.088242e-02
6.522000e+08, 1.424152e-01, 7.973886e-01, -2.903435e+00, -1.309767e+00, 3.850254e-10, 3.175528e-10, 3.785522e+01, -6.847881e-02
6.560000e+08, 1.427490e-01, 7.973156e-01, -2.912628e+00, -1.317349e+00, 3.851656e-10, 3.174449e-10, 3.780596e+01, -6.605086e-02
6.598000e+08, 1.430744e-01, 7.972429e-01, -2.921825e+00, -1.324928e+00, 3.853066e-10, 3.173377e-10, 3.775819e+01, -6.359918e-02
6.636000e+08, 1.433916e-01, 7.971706e-01, -2.931024e+00, -1.332505e+00, 3.854484e-10, 3.172311e-10, 3.771191e+01, -6.112437e-02
6.674000e+08, 1.437004e-01, 7.970987e-01, -2.940227e+00, -1.340079e+00, 3.855912e-10, 3.171253e-10, 3.766714e+01, -5.862707e-02
6.712000e+08, 1.440008e-01, 7.970273e-01, -2.949434e+00, -1.347651e+00, 3.857350e-10, 3.170203e-10, 3.762388e+01, -5.610792e-02
6.750000e+08, 1.442928e-01, 7.969564e-01, -2.958643e+00, -1.355220e+00, 3.858797e-10, 3.169164e-10, 3.758216e+01, -5.356757e-02
6.788000e+08, 1.445763e-01, 7.968862e-01, -2.967857e+00, -1.362787e+00, 3.860254e-10, 3.168134e-10, 3.754198e+01, -5.100667e-02
6.826000e+08, 1.448514e-01, 7.968166e-01, -2.977074e+00, -1.370351e+00, 3.861723e-10, 3.167117e-10, 3.750335e+01, -4.842590e-02
6.864000e+08, 1.451179e-01, 7.967477e-01, -2.986294e+00, -1.377913e+00, 3.863202e-10, 3.166111e-10, 3.746628e+01, -4.582594e-02
6.902000e+08, 1.453758e-01, 7.966796e-01, -2.995518e+00, -1.385472e+00, 3.864694e-10, 3.165119e-10, 3.743079e+01, -4.320748e-02
6.940000e+08, 1.456251e-01, 7.966123e-01, -3.004745e+00, -1.393030e+00, 3.866198e-10, 3.164140e-10, 3.739688e+01, -4.057121e-02
6.978000e+08, 1.458659e-01, 7.965459e-01, -3.013976e+00, -1.400584e+00, 3.867715e-10, 3.163176e-10, 3.736457e+01, -3.791784e-02
7.016000e+08, 1.460980e-01, 7.964805e-01, -3.023211e+00, -1.408137e+00, 3.869245e-10, 3.162227e-10, 3.733386e+01, -3.524809e-02
7.054000e+08, 1.463214e-01, 7.964160e-01, -3.032449e+00, -1.415687e+00, 3.870789e-10, 3.161295e-10, 3.730475e+01, -3.256268e-02
7.092000e+08, 1.465361e-01, 7.963526e-01, -3.041691e+00, -1.423235e+00, 3.872347e-10, 3.160379e-10, 3.727727e+01, -2.986234e-02
7.130000e+08, 1.467421e-01, 7.962903e-01, -3.050936e+00, -1.430781e+00, 3.873920e-10, 3.159481e-10, 3.725142e+01, -2.714780e-02
7.168000e+08, 1.469394e-01, 7.962291e-01, -3.060186e+00, -1.438324e+00, 3.875510e-10, 3.158601e-10, 3.722720e+01, -2.441983e-02
7.206000e+08, 1.471279e-01, 7.961692e-01, -3.069439e+00, -1.445866e+00, 3.877115e-10, 3.157740e-10, 3.720462e+01, -2.167916e-02
7.244000e+08, 1.473076e-01, 7.961104e-01, -3.078696e+00, -1.453405e+00, 3.878737e-10, 3.156898e-10, 3.718370e+01, -1.892656e-02
7.282000e+08, 1.474785e-01, 7.960530e-01, -3.087957e+00, -1.460943e+00, 3.880376e-10, 3.156077e-10, 3.716443e+01, -1.616279e-02
7.320000e+08, 1.476405e-01, 7.959968e-01, -3.097222e+00, -1.468478e+00, 3.882033e-10, 3.155277e-10, 3.714682e+01, -1.338863e-02
7.358000e+08, 1.477938e-01, 7.959421e-01, -3.106491e+00, -1.476012e+00, 3.883709e-10, 3.154497e-10, 3.713088e+01, -1.060485e-02
7.396000e+08, 1.479381e-01, 7.958887e-01, -3.115763e+00, -1.483543e+00, 3.885405e-10, 3.153740e-10, 3.711662e+01, -7.812241e-03
7.434000e+08, 1.480736e-01, 7.958368e-01, -3.125040e+00, -1.491073e+00, 3.887120e-10, 3.153005e-10, 3.710404e+01, -5.011578e-03
7.472000e+08, 1.482001e-01, 7.957864e-01, -3.134321e+00, -1.498601e+00, 3.888856e-10, 3.152292e-10, 3.709314e+01, -2.203657e-03
7.510000e+08, 1.483178e-01, 7.957375e-01, 3.139579e+00, -1.506128e+00, 3.890613e-10, 3.151603e-10, 3.708393e+01, 6.107270e-04
7.548000e+08, 1.484265e-01, 7.956901e-01, 3.130290e+00, -1.513653e+00, 3.892393e-10, 3.150938e-10, 3.707641e+01, 3.430775e-03
7.586000e+08, 1.485263e-01, 7.956444e-01, 3.120996e+00, -1.521176e+00, 3.894195e-10, 3.150296e-10, 3.707059e+01, 6.255685e-03
7.624000e+08, 1.486171e-01, 7.956003e-01, 3.111698e+00, -1.528698e+00, 3.896021e-10, 3.149679e-10, 3.706647e+01, 9.084654e-03
7.662000e+08, 1.486990e-01, 7.955578e-01, 3.102396e+00, -1.536218e+00, 3.897871e-10, 3.149087e-10, 3.706406e+01, 1.191687e-02
7.700000e+08, 1.487718e-01, 7.955170e-01, 3.093090e+00, -1.543737e+00, 3.899746e-10, 3.148520e-10, 3.706335e+01, 1.475153e-02
7.738000e+08, 1.488357e-01, 7.954779e-01, 3.083779e+00, -1.551254e+00, 3.901647e-10, 3.147978e-10, 3.706435e+01, 1.758783e-02
7.776000e+08, 1.488906e-01, 7.954406e-01, 3.074463e+00, -1.558770e+00, 3.903575e-10, 3.147462e-10, 3.706705e+01, 2.042494e-02
7.814000e+08, 1.489364e-01, 7.954050e-01, 3.065143e+00, -1.566285e+00, 3.905531e-10, 3.146972e-10, 3.707147e+01, 2.326206e-02
7.852000e+08, 1.489733e-01, 7.953712e-01, 3.055818e+00, -1.573799e+00, 3.907514e-10, 3.146508e-10, 3.707760e+01, 2.609837e-02
